Data from FLMS155811_12-09-11-864.txt Node
Date: Mon Mar 25 12:09:11 MDT 2024
User: andh57
Spectrometer: FLMS15581
Trigger mode: 0
Integration Time (sec): 5.154490E-1
Scans to average: 4
Electric dark correction enabled: true
Nonlinearity correction enabled: false
Boxcar width: 0
XAxis mode: Wavelengths
Number of Pixels in Spectrum: 2048
>>>>>Begin Spectral Data<<<<<
298.026	-38.06
298.106	-38.06
298.185	-38.06
298.265	-85.71
298.344	-18.55
298.424	-63.32
298.503	-70.21
298.583	-61.6
298.662	-47.25
298.741	-61.6
298.821	-66.19
298.9	-75.95
298.98	-54.71
299.059	28.52
299.138	-1.9
299.217	20.48
299.297	49.76
299.376	62.96
299.455	115.77
299.535	112.33
299.614	112.9
299.693	155.38
299.772	150.21
299.852	169.73
299.931	180.63
300.01	199.57
300.089	234.59
300.168	235.74
300.247	277.64
300.327	253.53
300.406	285.1
300.485	291.41
300.564	310.36
300.643	312.65
300.722	324.13
300.801	338.48
300.88	394.73
300.959	386.7
301.038	395.88
301.117	379.81
301.196	373.5
301.275	390.14
301.354	418.84
301.433	424.58
301.512	398.75
301.591	393.59
301.67	379.24
301.749	442.38
301.828	383.25
301.907	393.01
301.985	396.46
302.064	391.29
302.143	413.68
302.222	421.71
302.301	399.33
302.38	405.64
302.458	402.77
302.537	367.18
302.616	392.44
302.695	363.74
302.773	367.76
302.852	372.35
302.931	387.85
303.01	363.16
303.088	359.72
303.167	347.67
303.246	346.52
303.324	366.61
303.403	353.41
303.481	359.72
303.56	363.16
303.639	370.05
303.717	363.16
303.796	364.31
303.874	373.5
303.953	363.16
304.032	350.54
304.11	360.87
304.189	388.99
304.267	363.16
304.346	352.26
304.424	380.38
304.502	338.48
304.581	364.89
304.659	320.69
304.738	366.61
304.816	340.2
304.895	311.5
304.973	367.18
305.051	387.27
305.13	341.35
305.208	370.63
305.286	357.42
305.365	377.51
305.443	387.27
305.521	373.5
305.6	378.09
305.678	360.87
305.756	356.28
305.834	380.38
305.913	376.37
305.991	355.13
306.069	328.15
306.147	384.4
306.225	384.4
306.304	351.68
306.382	428.6
306.46	349.96
306.538	372.92
306.616	357.42
306.694	383.25
306.772	334.46
306.85	355.13
306.929	348.24
307.007	368.9
307.085	376.37
307.163	393.59
307.241	374.64
307.319	341.93
307.397	363.16
307.475	380.38
307.553	337.91
307.631	344.22
307.709	339.06
307.786	352.26
307.864	347.09
307.942	384.4
308.02	362.59
308.098	372.92
308.176	378.09
308.254	395.88
308.332	397.6
308.409	362.02
308.487	382.11
308.565	375.79
308.643	379.81
308.721	358.57
308.798	384.4
308.876	362.59
308.954	420.56
309.032	371.2
309.109	383.25
309.187	360.87
309.265	374.07
309.342	372.92
309.42	367.76
309.498	372.92
309.575	378.66
309.653	367.18
309.731	371.2
309.808	372.92
309.886	406.21
309.963	373.5
310.041	400.47
310.119	399.9
310.196	373.5
310.274	382.68
310.351	406.21
310.429	391.29
310.506	367.18
310.584	406.79
310.661	368.9
310.738	363.74
310.816	389.57
310.893	422.86
310.971	407.36
311.048	348.24
311.126	357.42
311.203	373.5
311.28	398.75
311.358	385.55
311.435	398.18
311.512	426.3
311.59	383.83
311.667	383.83
311.744	358.57
311.821	367.18
311.899	376.94
311.976	391.29
312.053	384.4
312.13	372.92
312.208	366.03
312.285	411.95
312.362	369.48
312.439	359.72
312.516	367.76
312.593	412.53
312.671	367.76
312.748	335.61
312.825	403.34
312.902	377.51
312.979	395.31
313.056	367.18
313.133	359.15
313.21	387.27
313.287	370.63
313.364	364.89
313.441	375.79
313.518	362.59
313.595	370.05
313.672	406.21
313.749	365.46
313.826	385.55
313.903	448.12
313.98	396.46
314.057	391.86
314.134	379.81
314.211	418.84
314.287	372.92
314.364	386.12
314.441	424.01
314.518	393.01
314.595	402.77
314.672	375.79
314.748	403.92
314.825	355.13
314.902	372.35
314.979	417.12
315.055	395.31
315.132	358.57
315.209	406.79
315.286	391.29
315.362	388.99
315.439	390.14
315.516	368.33
315.592	432.62
315.669	398.75
315.746	431.47
315.822	411.95
315.899	391.29
315.975	405.07
316.052	410.81
316.128	364.89
316.205	383.25
316.282	436.06
316.358	357.42
316.435	547.42
316.511	391.29
316.588	382.68
316.664	405.07
316.741	395.31
316.817	401.05
316.893	382.68
316.97	358
317.046	364.89
317.123	368.33
317.199	404.49
317.275	405.64
317.352	407.36
317.428	387.27
317.504	387.27
317.581	358
317.657	398.75
317.733	371.2
317.81	368.9
317.886	394.16
317.962	418.27
318.038	380.96
318.115	371.2
318.191	381.53
318.267	404.49
318.343	368.9
318.419	406.21
318.496	397.6
318.572	383.25
318.648	371.77
318.724	380.96
318.8	368.33
318.876	376.37
318.952	379.81
319.028	410.23
319.105	371.2
319.181	364.31
319.257	364.31
319.333	406.79
319.409	362.02
319.485	395.88
319.561	422.86
319.637	401.05
319.713	398.18
319.789	375.79
319.865	393.01
319.94	379.81
320.016	374.64
320.092	378.66
320.168	403.34
320.244	392.44
320.32	374.64
320.396	400.47
320.472	409.08
320.547	405.64
320.623	386.12
320.699	423.43
320.775	379.81
320.851	406.21
320.926	391.86
321.002	375.79
321.078	407.94
321.154	386.7
321.229	397.6
321.305	410.23
321.381	384.98
321.456	376.94
321.532	425.16
321.608	391.86
321.683	399.9
321.759	399.33
321.835	405.07
321.91	380.96
321.986	388.99
322.061	433.77
322.137	425.73
322.212	371.2
322.288	408.51
322.364	418.84
322.439	375.22
322.515	377.51
322.59	415.4
322.666	454.43
322.741	450.99
322.816	368.33
322.892	407.94
322.967	461.89
323.043	388.99
323.118	409.08
323.193	412.53
323.269	379.24
323.344	407.94
323.42	385.55
323.495	402.77
323.57	378.66
323.646	394.16
323.721	386.12
323.796	417.12
323.871	388.99
323.947	417.12
324.022	396.46
324.097	382.11
324.172	390.72
324.248	406.79
324.323	364.31
324.398	469.93
324.473	403.34
324.548	366.03
324.623	413.1
324.699	406.79
324.774	457.3
324.849	401.05
324.924	421.14
324.999	411.38
325.074	387.85
325.149	402.77
325.224	432.62
325.299	421.14
325.374	475.09
325.449	394.73
325.524	385.55
325.599	397.6
325.674	387.27
325.749	444.67
325.824	384.98
325.899	399.9
325.974	401.62
326.049	412.53
326.124	404.49
326.199	418.84
326.273	470.5
326.348	418.27
326.423	442.95
326.498	414.25
326.573	359.15
326.648	433.19
326.722	363.74
326.797	430.9
326.872	369.48
326.947	399.9
327.021	381.53
327.096	370.05
327.171	388.42
327.245	394.73
327.32	367.18
327.395	391.29
327.47	410.23
327.544	412.53
327.619	395.88
327.693	484.85
327.768	394.16
327.843	422.86
327.917	423.43
327.992	428.6
328.066	401.05
328.141	422.86
328.215	402.77
328.29	461.32
328.364	411.38
328.439	400.47
328.513	436.06
328.588	426.88
328.662	366.61
328.737	441.8
328.811	379.24
328.886	408.51
328.96	398.18
329.035	392.44
329.109	398.18
329.183	428.03
329.258	414.82
329.332	430.9
329.406	409.08
329.481	423.43
329.555	437.21
329.629	380.38
329.704	387.27
329.778	422.29
329.852	409.66
329.926	437.21
330.001	422.86
330.075	411.38
330.149	436.64
330.223	433.77
330.297	385.55
330.372	417.12
330.446	380.96
330.52	425.73
330.594	396.46
330.668	402.77
330.742	427.45
330.816	398.75
330.89	397.03
330.964	406.21
331.038	392.44
331.113	408.51
331.187	408.51
331.261	388.42
331.335	433.77
331.409	406.79
331.483	411.95
331.557	405.07
331.63	386.7
331.704	405.07
331.778	430.32
331.852	421.14
331.926	406.21
332	394.16
332.074	429.75
332.148	442.38
332.222	379.24
332.295	402.2
332.369	422.29
332.443	443.52
332.517	418.27
332.591	419.99
332.665	397.03
332.738	438.93
332.812	427.45
332.886	432.62
332.959	421.71
333.033	399.33
333.107	421.14
333.181	444.67
333.254	422.29
333.328	395.31
333.402	410.23
333.475	414.82
333.549	406.79
333.622	415.4
333.696	409.66
333.77	403.92
333.843	440.08
333.917	395.31
333.99	478.54
334.064	404.49
334.137	414.82
334.211	394.16
334.284	401.62
334.358	417.12
334.431	410.81
334.505	401.05
334.578	444.67
334.652	422.29
334.725	445.82
334.799	411.38
334.872	386.12
334.945	399.33
335.019	413.68
335.092	429.17
335.165	415.97
335.239	413.1
335.312	421.14
335.385	418.84
335.459	422.29
335.532	445.25
335.605	405.64
335.678	444.67
335.752	406.79
335.825	422.29
335.898	413.1
335.971	472.22
336.045	413.1
336.118	425.73
336.191	425.16
336.264	413.68
336.337	399.9
336.41	398.75
336.483	410.81
336.557	376.37
336.63	429.75
336.703	494.61
336.776	424.58
336.849	434.91
336.922	396.46
336.995	417.69
337.068	420.56
337.141	418.27
337.214	397.03
337.287	416.55
337.36	391.29
337.433	433.77
337.506	425.73
337.579	389.57
337.652	433.19
337.725	422.86
337.797	381.53
337.87	433.77
337.943	457.87
338.016	451.56
338.089	433.77
338.162	393.59
338.235	384.98
338.307	441.23
338.38	415.97
338.453	423.43
338.526	419.99
338.598	434.34
338.671	392.44
338.744	403.34
338.817	434.34
338.889	409.66
338.962	415.4
339.035	391.86
339.107	425.16
339.18	393.59
339.253	408.51
339.325	419.99
339.398	414.82
339.47	390.14
339.543	448.69
339.616	450.41
339.688	453.86
339.761	429.75
339.833	469.93
339.906	423.43
339.978	411.95
340.051	452.13
340.123	384.4
340.196	436.64
340.268	391.86
340.341	410.81
340.413	399.9
340.485	418.27
340.558	449.84
340.63	471.08
340.703	399.33
340.775	453.86
340.847	393.59
340.92	423.43
340.992	414.25
341.064	432.04
341.137	404.49
341.209	413.68
341.281	369.48
341.354	416.55
341.426	437.78
341.498	425.73
341.57	430.32
341.643	425.73
341.715	421.71
341.787	437.21
341.859	429.17
341.931	418.27
342.003	422.86
342.076	433.19
342.148	427.45
342.22	432.04
342.292	462.47
342.364	439.51
342.436	454.43
342.508	417.12
342.58	450.99
342.652	430.32
342.724	498.05
342.796	464.76
342.868	449.84
342.94	439.51
343.012	440.08
343.084	436.64
343.156	425.16
343.228	426.88
343.3	411.95
343.372	430.9
343.444	410.23
343.516	434.34
343.588	457.87
343.66	431.47
343.731	397.6
343.803	412.53
343.875	407.36
343.947	423.43
344.019	441.8
344.09	445.25
344.162	424.01
344.234	452.71
344.306	441.8
344.377	480.26
344.449	429.75
344.521	429.75
344.593	491.17
344.664	453.28
344.736	425.73
344.808	444.1
344.879	387.85
344.951	412.53
345.023	418.84
345.094	434.91
345.166	424.58
345.237	446.39
345.309	433.19
345.38	456.73
345.452	420.56
345.524	402.77
345.595	424.58
345.667	429.75
345.738	434.91
345.81	459.02
345.881	453.86
345.953	426.3
346.024	479.11
346.095	431.47
346.167	437.21
346.238	447.54
346.31	442.95
346.381	458.45
346.452	456.15
346.524	418.84
346.595	440.08
346.666	510.11
346.738	423.43
346.809	469.93
346.88	454.43
346.952	449.26
347.023	478.54
347.094	465.91
347.165	468.78
347.237	434.34
347.308	451.56
347.379	436.64
347.45	444.67
347.521	441.8
347.593	426.88
347.664	469.35
347.735	437.21
347.806	437.21
347.877	430.9
347.948	433.77
348.019	442.95
348.09	429.75
348.161	438.93
348.233	457.3
348.304	476.82
348.375	483.7
348.446	507.24
348.517	461.32
348.588	440.65
348.659	480.26
348.73	450.41
348.801	465.91
348.871	463.61
348.942	458.45
349.013	449.26
349.084	446.39
349.155	472.8
349.226	450.99
349.297	446.97
349.368	434.34
349.439	487.72
349.509	438.93
349.58	456.15
349.651	475.67
349.722	465.91
349.793	446.39
349.863	464.19
349.934	452.71
350.005	479.69
350.076	430.32
350.146	433.77
350.217	431.47
350.288	448.69
350.358	455
350.429	491.17
350.5	435.49
350.57	490.02
350.641	449.26
350.711	463.61
350.782	468.21
350.853	453.28
350.923	477.39
350.994	457.3
351.064	458.45
351.135	441.23
351.205	434.91
351.276	467.06
351.346	475.09
351.417	461.89
351.487	476.24
351.558	471.08
351.628	459.02
351.699	448.69
351.769	498.63
351.84	503.22
351.91	472.8
351.98	476.82
352.051	495.76
352.121	495.76
352.191	425.73
352.262	460.17
352.332	489.44
352.402	472.8
352.473	504.37
352.543	476.24
352.613	468.21
352.683	469.35
352.754	488.87
352.824	483.13
352.894	486.57
352.964	493.46
353.035	443.52
353.105	449.84
353.175	478.54
353.245	479.11
353.315	506.66
353.385	529.05
353.455	499.78
353.526	498.63
353.596	518.72
353.666	505.52
353.736	468.21
353.806	494.04
353.876	514.13
353.946	517
354.016	512.98
354.086	496.91
354.156	507.81
354.226	506.09
354.296	512.4
354.366	527.33
354.436	529.62
354.506	533.07
354.576	523.31
354.645	535.36
354.715	546.84
354.785	547.99
354.855	531.35
354.925	530.77
354.995	521.59
355.065	515.85
355.134	553.73
355.204	525.03
355.274	540.53
355.344	556.6
355.414	610.56
355.483	584.16
355.553	576.12
355.623	589.32
355.693	608.84
355.762	590.47
355.832	615.15
355.902	598.51
355.971	615.15
356.041	647.87
356.111	649.59
356.18	644.43
356.25	627.21
356.319	655.33
356.389	673.7
356.459	668.53
356.528	693.79
356.598	669.11
356.667	745.45
356.737	782.19
356.806	813.76
356.876	787.35
356.945	802.28
357.015	815.48
357.084	885.51
357.154	884.93
357.223	890.67
357.292	936.59
357.362	951.52
357.431	986.53
357.501	1089.28
357.57	1060.58
357.639	1090.43
357.709	1109.94
357.778	1173.66
357.847	1218.43
357.917	1228.19
357.986	1287.31
358.055	1283.29
358.124	1310.27
358.194	1435.4
358.263	2349.21
358.332	1599.57
358.401	1593.25
358.471	1610.47
358.54	1647.21
358.609	1701.16
358.678	1788.99
358.747	1815.96
358.816	1929.62
358.886	2001.37
358.955	2020.31
359.024	2085.17
359.093	2196.53
359.162	2322.23
359.231	2369.88
359.3	2399.15
359.369	2536.91
359.438	2633.92
359.507	2736.09
359.576	2797.51
359.645	2888.2
359.714	3028.83
359.783	3174.05
359.852	3242.36
359.921	3348.55
359.99	3394.47
360.059	3497.79
360.128	3707.3
360.197	3771.02
360.266	3978.23
360.334	4145.84
360.403	4301.97
360.472	4541.9
360.541	4627.43
360.61	4825.46
360.679	4927.63
360.747	5175.6
360.816	5311.64
360.885	5514.26
360.954	5599.21
361.022	5997
361.091	6116.96
361.16	6278.26
361.228	6573.87
361.297	6805.77
361.366	7076.12
361.434	7223.07
361.503	7557.71
361.572	7777.55
361.64	7910.72
361.709	8227
361.778	8573.12
361.846	8787.22
361.915	9102.35
361.983	9549.5
362.052	9985.17
362.12	10434.61
362.189	10568.93
362.257	11103.32
362.326	11327.18
362.394	11892.58
362.463	12294.38
362.531	12478.06
362.6	12938.41
362.668	13269.61
362.737	13857.39
362.805	14313.72
362.873	14674.19
362.942	15109.86
363.01	15672.96
363.079	15742.98
363.147	16152.82
363.215	16754.38
363.284	17120.59
363.352	17405.87
363.42	18133.7
363.488	18509.1
363.557	18844.32
363.625	19257.6
363.693	19525.66
363.761	20282.19
363.83	20681.13
363.898	21356.73
363.966	21474.4
364.034	22263.08
364.102	22447.33
364.171	23361.72
364.239	23539.66
364.307	24487.34
364.375	24794.43
364.443	25542.35
364.511	25924.64
364.579	26417.13
364.647	27005.48
364.715	27893.47
364.783	28356.11
364.851	28726.34
364.919	28990.38
364.987	29655.08
365.055	29786.53
365.123	30685.41
365.191	31320.83
365.259	31472.37
365.327	32223.74
365.395	33036.53
365.463	33681.13
365.531	34202.9
365.599	34647.18
365.667	35479.48
365.735	36101.7
365.802	36648.15
365.87	37603.29
365.938	37786.4
366.006	38737.52
366.074	38804.68
366.142	39756.37
366.209	40247.15
366.277	41414.67
366.345	42170.05
366.413	42986.86
366.48	43550.53
366.548	44468.93
366.616	44556.18
366.683	45395.95
366.751	46062.36
366.819	47314.26
366.886	48321.64
366.954	49492.03
367.022	49140.74
367.089	49619.46
367.157	50591.24
367.224	51194.52
367.292	50963.77
367.36	51393.12
367.427	51679.55
367.495	52333.34
367.562	52323.58
367.63	52530.8
367.697	52752.36
367.765	53214.43
367.832	53835.5
367.9	53956.04
367.967	54105.29
368.034	54133.99
368.102	54652.31
368.169	54972.03
368.237	55341.11
368.304	55570.14
368.371	55396.79
368.439	55652.8
368.506	55924.3
368.573	56399
368.641	56376.04
368.708	56394.98
368.775	56918.47
368.843	56618.27
368.91	56916.75
368.977	56766.93
369.044	56916.75
369.112	56675.67
369.179	56995.39
369.246	57148.07
369.313	57164.72
369.38	57243.93
369.448	57158.4
369.515	57135.44
369.582	56816.87
369.649	56753.16
369.716	57323.14
369.783	57590.63
369.85	57701.41
369.917	57715.76
369.984	57071.73
370.052	57127.41
370.119	57114.78
370.186	57438.52
370.253	57086.65
370.32	57051.64
370.387	57406.95
370.454	57117.08
370.521	57047.05
370.587	56600.47
370.654	56750.86
370.721	57037.29
370.788	57223.84
370.855	56979.89
370.922	56981.61
370.989	56929.38
371.056	57291.57
371.123	56823.19
371.189	56415.07
371.256	56671.65
371.323	56507.49
371.39	56415.64
371.457	56695.76
371.523	56693.46
371.59	56510.36
371.657	56733.07
371.724	56537.91
371.79	56161.94
371.857	56488.54
371.924	56219.91
371.991	56349.06
372.057	56277.31
372.124	56531.59
372.191	56482.8
372.257	56377.76
372.324	56322.08
372.39	56081
372.457	55877.8
372.524	56007.53
372.59	56064.36
372.657	55677.48
372.723	55449.02
372.79	55840.49
372.856	55881.25
372.923	55794.57
372.989	55413.44
373.056	55625.24
373.122	55555.22
373.189	54845.75
373.255	55048.95
373.322	54957.68
373.388	55234.35
373.454	55111.51
373.521	54529.47
373.587	54810.16
373.654	54388.84
373.72	54571.38
373.786	54313.07
373.853	54346.94
373.919	54213.2
373.985	54042.72
374.052	54408.36
374.118	53889.46
374.184	54139.73
374.25	54210.33
374.317	54020.33
374.383	53549.08
374.449	53830.34
374.515	53923.33
374.581	53849.28
374.648	53726.44
374.714	53570.89
374.78	53329.23
374.846	53134.07
374.912	53305.13
374.978	53271.26
375.044	53647.23
375.11	52906.77
375.177	53229.36
375.243	52857.98
375.309	53221.32
375.375	53216.16
375.441	52614.03
375.507	52325.88
375.573	52294.31
375.639	51650.85
375.705	51622.15
375.771	51036.09
375.837	50974.68
375.903	51471.19
375.968	51002.23
376.034	50376.57
376.1	50423.63
376.166	50336.96
376.232	50270.38
376.298	50248.56
376.364	49327.29
376.43	49353.69
376.495	49063.82
376.561	48799.78
376.627	48326.23
376.693	48509.91
376.759	48664.32
376.824	48540.91
376.89	48571.9
376.956	47802.17
377.022	48061.61
377.087	47968.63
377.153	47744.76
377.219	47984.7
377.284	46673.68
377.35	46516.97
377.416	46453.83
377.481	46680.56
377.547	46091.06
377.613	45878.68
377.678	45445.89
377.744	45379.3
377.809	44778.89
377.875	45104.93
377.94	45063.03
378.006	44691.65
378.071	43717.56
378.137	43579.23
378.202	43454.67
378.268	42717.65
378.333	42760.13
378.399	42544.3
378.464	42392.19
378.53	42100.6
378.595	41669.52
378.661	41800.4
378.726	41312.49
378.791	40942.26
378.857	40564.57
378.922	40740.79
378.987	40434.27
379.053	40247.15
379.118	39913.65
379.183	39437.8
379.249	39928
379.314	39261.01
379.379	38696.77
379.444	38786.88
379.51	39031.98
379.575	38733.5
379.64	38306.44
379.705	37401.24
379.771	37081.52
379.836	37142.94
379.901	37032.16
379.966	37106.78
380.031	36475.95
380.096	36026.51
380.161	35951.89
380.227	36012.73
380.292	35804.94
380.357	35202.81
380.422	34823.4
380.487	34888.83
380.552	34614.46
380.617	34474.98
380.682	34193.72
380.747	33435.46
380.812	33310.33
380.877	33421.11
380.942	33166.83
381.007	32835.63
381.072	32432.1
381.137	32197.91
381.202	32152.56
381.266	31819.07
381.331	31648.02
381.396	31346.66
381.461	30987.34
381.526	30584.39
381.591	30037.94
381.656	29979.97
381.72	29804.89
381.785	29667.71
381.85	29333.06
381.915	28677.55
381.979	28481.82
382.044	28461.15
382.109	28169.56
382.174	27594.99
382.238	27702.32
382.303	27450.34
382.368	27151.86
382.432	26925.12
382.497	26646.16
382.562	26285.11
382.626	26317.26
382.691	25882.16
382.756	25527.43
382.82	25076.26
382.885	24841.5
382.949	24788.69
383.014	24457.49
383.078	24315.71
383.143	24294.47
383.208	23897.84
383.272	23463.89
383.337	23435.76
383.401	23038.55
383.465	22506.45
383.53	22438.72
383.594	22400.84
383.659	22330.24
383.723	22226.34
383.788	22009.94
383.852	21739.01
383.916	21721.22
383.981	21539.26
384.045	21187.4
384.109	21131.14
384.174	20890.64
384.238	20682.85
384.302	20305.73
384.367	20515.81
384.431	19981.42
384.495	19686.38
384.56	19502.13
384.624	18954.53
384.688	19027.43
384.752	18827.67
384.816	18666.38
384.881	18384.54
384.945	18302.46
385.009	18032.68
385.073	17818
385.137	17623.42
385.201	17483.93
385.265	17235.39
385.33	17146.99
385.394	17214.73
385.458	16876.64
385.522	16576.44
385.586	16701.57
385.65	16511.57
385.714	16095.42
385.778	15962.83
385.842	15953.07
385.906	15705.67
385.97	15631.63
386.034	15389.97
386.098	15472.05
386.162	15261.4
386.226	15112.73
386.29	14735.04
386.354	14687.39
386.417	14545.61
386.481	14154.72
386.545	13998.59
386.609	13669.69
386.673	13803.43
386.737	13623.77
386.8	13423.44
386.864	13454.44
386.928	13272.48
386.992	13120.94
387.056	12915.45
387.119	12860.34
387.183	12641.65
387.247	12405.16
387.31	12243.29
387.374	12056.17
387.438	11877.08
387.502	12108.97
387.565	11813.94
387.629	11801.31
387.692	11627.39
387.756	11568.84
387.82	11420.75
387.883	11284.71
387.947	11059.12
388.01	10992.54
388.074	10787.05
388.138	10567.2
388.201	10562.61
388.265	10524.15
388.328	10378.36
388.392	10271.02
388.455	10240.02
388.519	10205.01
388.582	10003.53
388.645	9938.1
388.709	9879.55
388.772	9712.51
388.836	9466.84
388.899	9485.21
388.962	9482.91
389.026	9303.83
389.089	9194.19
389.153	9077.09
389.216	8947.37
389.279	8937.04
389.343	8859.55
389.406	8844.62
389.469	8720.06
389.532	8559.34
389.596	8528.35
389.659	8409.53
389.722	8380.26
389.785	8137.45
389.848	8081.77
389.912	7972.14
389.975	7896.37
390.038	7865.38
390.101	7756.89
390.164	7774.11
390.227	7868.25
390.291	7620.28
390.354	7572.63
390.417	7618.55
390.48	7367.72
390.543	7440.04
390.606	7163.37
390.669	7081.29
390.732	7108.27
390.795	7045.13
390.858	6966.49
390.921	6825.86
390.984	6719.09
391.047	6722.54
391.11	6599.13
391.173	6533.12
391.236	6455.05
391.299	6465.38
391.362	6420.04
391.424	6335.66
391.487	6355.18
391.55	6294.33
391.613	6091.13
391.676	6064.16
391.739	6078.51
391.802	6007.33
391.864	5987.24
391.927	5879.9
391.99	5729.51
392.053	5782.32
392.115	5753.05
392.178	5696.79
392.241	5641.69
392.304	5507.37
392.366	5416.68
392.429	5463.18
392.492	5271.46
392.554	5243.33
392.617	5193.97
392.68	5122.22
392.742	5099.26
392.805	5024.06
392.867	4972.4
392.93	4963.79
392.992	5009.14
393.055	4891.47
393.118	4824.31
393.18	4725.58
393.243	4795.61
393.305	4636.04
393.368	4712.95
393.43	4582.66
393.493	4604.47
393.555	4534.44
393.618	4449.49
393.68	4355.92
393.742	4393.81
393.805	4394.38
393.867	4303.69
393.93	4293.93
393.992	4207.26
394.054	4143.54
394.117	4185.45
394.179	4075.81
394.241	4064.91
394.304	3948.38
394.366	3923.13
394.428	3866.3
394.49	3868.6
394.553	3847.36
394.615	3767.57
394.677	3714.19
394.739	3623.5
394.802	3653.92
394.864	3586.19
394.926	3574.71
394.988	3578.73
395.05	3581.6
395.112	3461.05
395.174	3467.37
395.237	3373.81
395.299	3302.06
395.361	3428.34
395.423	3310.67
395.485	3275.08
395.547	3229.16
395.609	3262.45
395.671	3211.94
395.733	3136.74
395.795	3158.56
395.857	3147.65
395.919	3063.27
395.981	3109.19
396.043	3046.63
396.105	2979.47
396.167	2844
396.229	2901.98
396.291	2880.16
396.352	2841.13
396.414	2865.81
396.476	2752.16
396.538	2720.02
396.6	2810.71
396.662	2773.4
396.724	2648.84
396.785	2672.95
396.847	2611.53
396.909	2624.16
396.971	2579.96
397.032	2499.6
397.094	2432.44
397.156	2422.11
397.218	2398.58
397.279	2368.73
397.341	2350.36
397.403	2383.65
397.464	2333.14
397.526	2309.03
397.588	2267.7
397.649	2272.87
397.711	2292.39
397.772	2295.83
397.834	2262.54
397.896	2239.58
397.957	2188.49
398.019	2170.7
398.08	2117.32
398.142	2044.99
398.203	2085.17
398.265	2106.41
398.326	2071.4
398.388	2051.31
398.449	1978.41
398.511	2016.86
398.572	2020.88
398.633	1949.13
398.695	1980.13
398.756	1906.08
398.818	1916.41
398.879	1945.11
398.94	1964.63
399.002	1887.14
399.063	1848.11
399.124	1845.81
399.186	1865.9
399.247	1816.54
399.308	1838.92
399.369	1785.54
399.431	1772.34
399.492	1814.24
399.553	1745.94
399.614	1737.9
399.676	1730.44
399.737	1719.53
399.798	1679.35
399.859	1704.61
399.92	1687.39
399.981	1664.43
400.042	1651.23
400.104	1623.67
400.165	1647.21
400.226	1571.44
400.287	1557.09
400.348	1598.99
400.409	1595.55
400.47	1568
400.531	1559.96
400.592	1568
400.653	1510.02
400.714	1519.2
400.775	1488.78
400.836	1491.08
400.897	1453.19
400.958	1508.87
401.019	1466.4
401.08	1407.85
401.141	1467.54
401.201	1449.75
401.262	1460.66
401.323	1407.85
401.384	1352.17
401.445	1378.57
401.506	1442.29
401.567	1403.83
401.627	1372.26
401.688	1369.96
401.749	1350.45
401.81	1370.54
401.87	1371.11
401.931	1389.48
401.992	1348.73
402.053	1333.8
402.113	1359.63
402.174	1361.35
402.235	1268.37
402.295	1279.85
402.356	1239.67
402.417	1290.18
402.477	1288.46
402.538	1269.51
402.598	1324.04
402.659	1297.64
402.719	1232.2
402.78	1248.85
402.841	1274.68
402.901	1255.16
402.962	1208.67
403.022	1188.58
403.083	1199.49
403.143	1200.63
403.204	1225.32
403.264	1159.88
403.324	1164.47
403.385	1171.93
403.445	1108.22
403.506	1159.88
403.566	1152.99
403.627	1147.83
403.687	1124.29
403.747	1142.66
403.808	1095.02
403.868	1138.07
403.928	1154.71
403.989	1107.07
404.049	1074.35
404.109	1073.21
404.169	1105.92
404.23	1112.81
404.29	1056.56
404.35	1048.52
404.41	1070.91
404.47	1035.89
404.531	1078.37
404.591	1099.61
404.651	1520.93
404.711	1074.35
404.771	1025.56
404.831	1039.34
404.892	1014.66
404.952	1019.25
405.012	992.27
405.072	970.46
405.132	1014.08
405.192	1032.45
405.252	997.44
405.312	981.36
405.372	1002.03
405.432	957.83
405.492	954.39
405.552	975.62
405.612	944.63
405.672	962.42
405.732	918.22
405.792	925.69
405.852	941.76
405.912	887.8
405.971	904.45
406.031	904.45
406.091	868.86
406.151	861.97
406.211	908.47
406.271	937.74
406.33	902.73
406.39	849.34
406.45	865.42
406.51	845.33
406.57	859.68
406.629	861.97
406.689	872.3
406.749	879.19
406.808	851.64
406.868	800.55
406.928	836.72
406.988	812.03
407.047	801.7
407.107	794.24
407.166	820.07
407.226	812.61
407.286	859.68
407.345	816.05
407.405	810.31
407.464	779.89
407.524	797.68
407.584	776.45
407.643	759.8
407.703	768.98
407.762	806.29
407.822	795.96
407.881	771.85
407.941	758.08
408	797.68
408.059	768.41
408.119	716.75
408.178	744.88
408.238	801.7
408.297	720.77
408.356	729.38
408.416	722.49
408.475	743.15
408.535	712.73
408.594	720.19
408.653	701.25
408.712	724.79
408.772	721.92
408.831	709.86
408.89	736.84
408.95	688.62
409.009	714.45
409.068	670.83
409.127	732.25
409.186	640.41
409.246	668.53
409.305	702.4
409.364	684.61
409.423	673.13
409.482	696.09
409.541	698.38
409.6	630.08
409.66	695.51
409.719	690.35
409.778	702.4
409.837	690.92
409.896	634.09
409.955	650.74
410.014	638.11
410.073	706.99
410.132	602.52
410.191	622.04
410.25	662.79
410.309	636.39
410.368	620.89
410.427	667.39
410.486	636.96
410.545	622.61
410.603	624.91
410.662	626.63
410.721	631.8
410.78	656.48
410.839	630.65
410.898	623.19
410.957	665.66
411.015	619.17
411.074	621.47
411.133	674.27
411.192	587.03
411.25	622.61
411.309	608.84
411.368	570.38
411.427	547.99
411.485	585.88
411.544	563.49
411.603	573.82
411.661	593.91
411.72	566.36
411.779	638.11
411.837	599.08
411.896	566.36
411.955	557.18
412.013	542.25
412.072	595.64
412.13	568.08
412.189	554.31
412.247	583.58
412.306	538.81
412.364	534.79
412.423	577.27
412.481	584.73
412.54	564.06
412.598	564.06
412.657	562.34
412.715	544.55
412.774	568.66
412.832	523.88
412.891	587.6
412.949	549.14
413.007	554.31
413.066	581.29
413.124	542.83
413.182	528.48
413.241	565.79
413.299	545.12
413.357	581.86
413.416	518.72
413.474	507.24
413.532	554.31
413.59	546.27
413.649	547.99
413.707	526.75
413.765	536.51
413.823	543.97
413.881	496.91
413.94	546.27
413.998	565.21
414.056	507.81
414.114	522.16
414.172	511.83
414.23	531.92
414.288	532.49
414.347	504.94
414.405	542.83
414.463	563.49
414.521	509.53
414.579	534.22
414.637	465.91
414.695	517
414.753	523.88
414.811	463.04
414.869	508.96
414.927	529.05
414.985	510.11
415.043	523.31
415.101	547.42
415.158	520.44
415.216	510.68
415.274	501.5
415.332	491.17
415.39	457.3
415.448	486.57
415.506	506.66
415.563	452.71
415.621	465.34
415.679	496.91
415.737	472.22
415.795	496.33
415.852	500.35
415.91	487.15
415.968	485.43
416.026	521.59
416.083	498.05
416.141	529.62
416.199	470.5
416.256	476.82
416.314	491.17
416.372	477.96
416.429	465.34
416.487	546.84
416.544	469.93
416.602	479.69
416.66	485.43
416.717	463.04
416.775	503.79
416.832	451.56
416.89	508.39
416.947	510.68
417.005	466.48
417.062	477.96
417.12	461.89
417.177	436.64
417.235	450.99
417.292	477.39
417.35	478.54
417.407	449.84
417.464	440.65
417.522	472.8
417.579	434.91
417.637	477.39
417.694	475.67
417.751	486.57
417.809	459.6
417.866	455.58
417.923	476.24
417.981	440.08
418.038	475.67
418.095	487.72
418.152	490.02
418.21	496.33
418.267	468.78
418.324	447.54
418.381	473.95
418.438	441.23
418.496	454.43
418.553	431.47
418.61	449.84
418.667	468.78
418.724	437.78
418.781	473.37
418.838	451.56
418.895	465.34
418.952	477.39
419.01	473.37
419.067	440.65
419.124	444.1
419.181	505.52
419.238	455
419.295	469.35
419.352	446.97
419.409	455.58
419.466	451.56
419.523	442.95
419.579	455
419.636	453.28
419.693	411.38
419.75	505.52
419.807	481.41
419.864	485.43
419.921	449.84
419.978	428.03
420.034	429.17
420.091	467.63
420.148	474.52
420.205	444.1
420.262	412.53
420.318	422.29
420.375	448.12
420.432	429.75
420.489	402.77
420.545	404.49
420.602	444.67
420.659	403.92
420.715	437.21
420.772	440.65
420.829	433.77
420.885	484.28
420.942	488.87
420.999	446.97
421.055	442.95
421.112	436.06
421.168	428.03
421.225	460.17
421.282	459.6
421.338	441.8
421.395	430.32
421.451	401.05
421.508	500.92
421.564	436.06
421.621	398.18
421.677	401.05
421.734	436.64
421.79	443.52
421.846	440.08
421.903	441.23
421.959	465.91
422.016	432.62
422.072	417.12
422.128	425.16
422.185	424.01
422.241	471.65
422.297	419.42
422.354	426.3
422.41	433.77
422.466	379.24
422.523	445.25
422.579	427.45
422.635	440.08
422.691	418.27
422.748	428.03
422.804	441.23
422.86	500.35
422.916	430.9
422.972	423.43
423.029	401.62
423.085	422.86
423.141	455
423.197	478.54
423.253	430.32
423.309	442.38
423.365	416.55
423.421	393.59
423.477	423.43
423.533	453.86
423.589	446.97
423.645	417.12
423.701	405.64
423.757	426.88
423.813	399.33
423.869	412.53
423.925	417.69
423.981	416.55
424.037	426.3
424.093	419.99
424.149	405.07
424.205	419.99
424.261	435.49
424.317	433.19
424.373	409.66
424.428	420.56
424.484	418.84
424.54	393.01
424.596	422.86
424.652	424.01
424.708	447.54
424.763	392.44
424.819	413.1
424.875	419.99
424.931	406.79
424.986	383.25
425.042	416.55
425.098	468.78
425.153	461.89
425.209	433.19
425.265	459.6
425.32	422.86
425.376	419.42
425.432	415.4
425.487	409.66
425.543	377.51
425.598	402.2
425.654	378.09
425.709	395.88
425.765	421.14
425.82	413.68
425.876	436.06
425.932	431.47
425.987	419.99
426.042	453.28
426.098	411.38
426.153	397.03
426.209	398.75
426.264	395.31
426.32	404.49
426.375	423.43
426.43	417.69
426.486	422.86
426.541	434.34
426.597	402.2
426.652	411.95
426.707	411.95
426.763	422.29
426.818	406.21
426.873	380.96
426.928	384.98
426.984	402.77
427.039	410.23
427.094	398.75
427.149	401.05
427.205	363.74
427.26	420.56
427.315	388.99
427.37	397.6
427.425	437.21
427.48	397.6
427.536	410.81
427.591	397.03
427.646	411.95
427.701	404.49
427.756	376.37
427.811	400.47
427.866	406.21
427.921	400.47
427.976	408.51
428.031	394.16
428.086	373.5
428.141	392.44
428.196	435.49
428.251	461.32
428.306	390.72
428.361	385.55
428.416	393.59
428.471	420.56
428.526	417.69
428.581	428.03
428.636	413.1
428.691	428.03
428.745	380.96
428.8	406.79
428.855	394.73
428.91	387.85
428.965	415.97
429.02	397.6
429.074	375.22
429.129	412.53
429.184	411.38
429.239	397.03
429.293	403.92
429.348	380.38
429.403	414.82
429.457	405.07
429.512	422.29
429.567	393.59
429.621	366.61
429.676	417.12
429.731	413.68
429.785	394.16
429.84	380.96
429.895	371.2
429.949	425.16
430.004	378.66
430.058	401.05
430.113	367.76
430.167	414.82
430.222	364.89
430.276	403.34
430.331	390.72
430.385	428.6
430.44	395.31
430.494	400.47
430.549	395.31
430.603	416.55
430.657	413.68
430.712	386.7
430.766	351.11
430.821	383.25
430.875	407.36
430.929	392.44
430.984	373.5
431.038	383.25
431.092	376.94
431.147	355.13
431.201	421.71
431.255	378.09
431.309	393.01
431.364	406.21
431.418	410.81
431.472	433.19
431.526	372.35
431.581	421.14
431.635	411.38
431.689	411.95
431.743	375.79
431.797	377.51
431.851	382.11
431.906	393.59
431.96	378.09
432.014	419.99
432.068	372.35
432.122	382.68
432.176	374.07
432.23	403.34
432.284	419.99
432.338	406.79
432.392	376.37
432.446	384.98
432.5	401.05
432.554	360.29
432.608	406.21
432.662	395.31
432.716	383.25
432.77	367.76
432.824	386.12
432.878	392.44
432.931	390.14
432.985	431.47
433.039	379.24
433.093	413.1
433.147	395.88
433.201	374.64
433.254	391.29
433.308	399.9
433.362	386.12
433.416	453.86
433.47	417.69
433.523	402.77
433.577	413.1
433.631	403.92
433.684	374.64
433.738	396.46
433.792	422.29
433.846	393.01
433.899	367.76
433.953	393.59
434.006	425.16
434.06	401.05
434.114	414.25
434.167	414.25
434.221	414.25
