Data from FLMS155811_15-47-09-390.txt Node
Date: Tue May 12 15:47:09 MDT 2026
User: ecestudent
Spectrometer: FLMS15581
Trigger mode: 0
Integration Time (sec): 5.500000E-2
Scans to average: 150
Electric dark correction enabled: true
Nonlinearity correction enabled: false
Boxcar width: 0
XAxis mode: Wavelengths
Number of Pixels in Spectrum: 2048
>>>>>Begin Spectral Data<<<<<
298.026	-97.51
298.106	-97.51
298.185	-97.51
298.265	-134.77
298.344	-124.64
298.424	-122.88
298.503	-116.43
298.583	-101.36
298.662	-87.41
298.741	-66.58
298.821	-55.31
298.9	-34.13
298.98	-17.83
299.059	1.34
299.138	21.39
299.217	43.64
299.297	64.94
299.376	85.98
299.455	107.04
299.535	130.83
299.614	146.77
299.693	163.24
299.772	182.72
299.852	201.32
299.931	226.85
300.01	243.41
300.089	246.83
300.168	269.89
300.247	279.81
300.327	294.52
300.406	307.81
300.485	309
300.564	316.76
300.643	324.52
300.722	336
300.801	334.93
300.88	342.34
300.959	343.89
301.038	340.2
301.117	350.01
301.196	349.09
301.275	347.02
301.354	350.27
301.433	352.11
301.512	346.15
301.591	354.88
301.67	354.94
301.749	360.37
301.828	344.36
301.907	346.46
301.985	346.76
302.064	341.44
302.143	343.32
302.222	342.37
302.301	342
302.38	335.9
302.458	342.02
302.537	334.72
302.616	338.8
302.695	330.98
302.773	331.27
302.852	328.47
302.931	331.76
303.01	325.89
303.088	329.11
303.167	324
303.246	322.07
303.324	323.33
303.403	329.94
303.481	327.8
303.56	320.42
303.639	321.75
303.717	320.67
303.796	325.29
303.874	319.75
303.953	321.09
304.032	324.71
304.11	322.17
304.189	326.76
304.267	324.6
304.346	325.33
304.424	328.5
304.502	322.81
304.581	329.73
304.659	326.82
304.738	331.52
304.816	326.07
304.895	328.38
304.973	331.59
305.051	330.54
305.13	331.67
305.208	329.83
305.286	324.81
305.365	333.13
305.443	330.08
305.521	335.53
305.6	336.86
305.678	332.07
305.756	330.66
305.834	331
305.913	329.5
305.991	330.55
306.069	335.3
306.147	331.82
306.225	334.5
306.304	332.6
306.382	344.83
306.46	335.27
306.538	342.52
306.616	334.55
306.694	336.65
306.772	339.72
306.85	338.42
306.929	336.74
307.007	334.09
307.085	337.84
307.163	342.2
307.241	337.76
307.319	339.97
307.397	334.43
307.475	339.88
307.553	338.91
307.631	338.87
307.709	335.21
307.786	336.98
307.864	338.71
307.942	338.68
308.02	341.9
308.098	343.52
308.176	343.21
308.254	338.9
308.332	333.72
308.409	342.88
308.487	343.66
308.565	343.84
308.643	338.53
308.721	339.05
308.798	342.94
308.876	337.99
308.954	348.6
309.032	338.39
309.109	340.3
309.187	344.34
309.265	346.26
309.342	343.61
309.42	348.62
309.498	343.03
309.575	347.35
309.653	340.93
309.731	348.22
309.808	342.45
309.886	349.98
309.963	347.71
310.041	346.67
310.119	353.47
310.196	342.22
310.274	347.51
310.351	344.71
310.429	343.9
310.506	343.35
310.584	353.05
310.661	350.53
310.738	346.35
310.816	354.22
310.893	354.32
310.971	351.66
311.048	347.41
311.126	351.95
311.203	353.36
311.28	347.41
311.358	350.5
311.435	348.8
311.512	349.15
311.59	351.92
311.667	348.16
311.744	350.19
311.821	358.18
311.899	345.68
311.976	352.17
312.053	350.31
312.13	358.3
312.208	348.08
312.285	354.22
312.362	353.73
312.439	347.16
312.516	349.58
312.593	351.45
312.671	355.23
312.748	356.39
312.825	352.78
312.902	349.72
312.979	354.94
313.056	353.27
313.133	357.39
313.21	356.47
313.287	354.8
313.364	351.02
313.441	351.26
313.518	354.13
313.595	355.37
313.672	359.64
313.749	353.77
313.826	355.5
313.903	360.71
313.98	357.1
314.057	357.31
314.134	360.72
314.211	355.75
314.287	348.13
314.364	359.64
314.441	358.11
314.518	360.46
314.595	361.55
314.672	363
314.748	362.19
314.825	356.51
314.902	355.55
314.979	359.93
315.055	357.81
315.132	362.25
315.209	360.14
315.286	356.53
315.362	363.07
315.439	363.83
315.516	353.54
315.592	368.56
315.669	359.76
315.746	360.78
315.822	358.93
315.899	362.56
315.975	360.45
316.052	367.08
316.128	367.83
316.205	361.83
316.282	366.95
316.358	370.7
316.435	381.98
316.511	363.46
316.588	362.85
316.664	359.1
316.741	366.74
316.817	364.37
316.893	362.44
316.97	366.82
317.046	359.73
317.123	366.46
317.199	366.65
317.275	367.2
317.352	365.04
317.428	366.74
317.504	365.91
317.581	362.88
317.657	365.41
317.733	364.15
317.81	365.35
317.886	366.42
317.962	362.25
318.038	362.35
318.115	366
318.191	363.08
318.267	370.32
318.343	368.12
318.419	366.17
318.496	365.15
318.572	365.1
318.648	364.69
318.724	365.18
318.8	371.09
318.876	369.28
318.952	365.71
319.028	365.88
319.105	365.71
319.181	370.46
319.257	370.81
319.333	366.83
319.409	362.15
319.485	367.11
319.561	366.97
319.637	365.28
319.713	366.54
319.789	366.16
319.865	368.77
319.94	366.71
320.016	370.55
320.092	371.71
320.168	371.77
320.244	369.31
320.32	370.96
320.396	366.51
320.472	370.32
320.547	375.6
320.623	369.4
320.699	371.47
320.775	373.38
320.851	374.44
320.926	369.17
321.002	367.01
321.078	371.76
321.154	376.49
321.229	372.4
321.305	377.51
321.381	372.25
321.456	370.26
321.532	373.64
321.608	372.52
321.683	373.05
321.759	374.5
321.835	375.19
321.91	368.88
321.986	373.47
322.061	375.66
322.137	373.09
322.212	378.31
322.288	373.5
322.364	373.2
322.439	376.47
322.515	373.84
322.59	378.17
322.666	375.63
322.741	380.64
322.816	371.41
322.892	379.37
322.967	379.98
323.043	373.5
323.118	373.37
323.193	375.86
323.269	373.24
323.344	376.7
323.42	375.2
323.495	373.67
323.57	376.37
323.646	373.69
323.721	369.8
323.796	373.96
323.871	375.11
323.947	376.44
324.022	372.22
324.097	382.12
324.172	370.49
324.248	378.16
324.323	369.03
324.398	380.62
324.473	375.82
324.548	374.44
324.623	376.35
324.699	377.82
324.774	380.78
324.849	375.92
324.924	375.98
324.999	376.61
325.074	373.23
325.149	381.91
325.224	388.12
325.299	454.08
325.374	382.47
325.449	377.94
325.524	376.29
325.599	376.64
325.674	377.25
325.749	385.98
325.824	377.67
325.899	374.04
325.974	382.11
326.049	378.6
326.124	386.79
326.199	380.15
326.273	375.52
326.348	379.38
326.423	378.42
326.498	381.26
326.573	375.14
326.648	382.98
326.722	375.91
326.797	376.99
326.872	378.72
326.947	375.51
327.021	384.37
327.096	376.41
327.171	377.84
327.245	381.8
327.32	376.93
327.395	381.43
327.47	383.94
327.544	379.98
327.619	379.66
327.693	396.07
327.768	386.3
327.843	385.92
327.917	380.3
327.992	376.49
328.066	381.1
328.141	379.17
328.215	382.44
328.29	382
328.364	381.14
328.439	384.46
328.513	388.61
328.588	383.25
328.662	382.76
328.737	388.08
328.811	381.2
328.886	382.89
328.96	382.18
329.035	378.92
329.109	382.09
329.183	378.34
329.258	384.02
329.332	383.38
329.406	379.54
329.481	383.58
329.555	379.83
329.629	384.1
329.704	381.65
329.778	383.65
329.852	387.46
329.926	381.74
330.001	381.86
330.075	381.69
330.149	384.63
330.223	382.46
330.297	387.43
330.372	387.46
330.446	379
330.52	385.67
330.594	386.42
330.668	389.21
330.742	382.24
330.816	384.8
330.89	383.45
330.964	386.32
331.038	388.31
331.113	379.05
331.187	387.08
331.261	384.45
331.335	387.3
331.409	387.14
331.483	388.12
331.557	382.95
331.63	389.79
331.704	382.78
331.778	382.29
331.852	384.65
331.926	385.05
332	385.26
332.074	386.74
332.148	393.8
332.222	390.05
332.295	386.55
332.369	390.23
332.443	394.73
332.517	388.55
332.591	391.55
332.665	385.84
332.738	389.56
332.812	385.83
332.886	388.98
332.959	388.6
333.033	387.79
333.107	387.66
333.181	396.54
333.254	388.23
333.328	396.01
333.402	391.99
333.475	388.7
333.549	391.28
333.622	389.81
333.696	390.8
333.77	390.54
333.843	391.51
333.917	391.26
333.99	399.95
334.064	390.57
334.137	388.99
334.211	386.81
334.284	385.66
334.358	393.85
334.431	385.89
334.505	390.62
334.578	390.95
334.652	387.88
334.725	393.33
334.799	388.75
334.872	393.89
334.945	393.16
335.019	390.65
335.092	399.31
335.165	399.74
335.239	391.96
335.312	392.09
335.385	392.13
335.459	394.63
335.532	394.15
335.605	394.32
335.678	400.57
335.752	392.84
335.825	394.02
335.898	394.05
335.971	401.18
336.045	392.5
336.118	393.85
336.191	392.39
336.264	393.51
336.337	395.39
336.41	400.67
336.483	398.82
336.557	396.19
336.63	393.17
336.703	403.64
336.776	394.89
336.849	402.2
336.922	399.17
336.995	399.5
337.068	393.08
337.141	396.43
337.214	396.07
337.287	392.87
337.36	396.82
337.433	394.73
337.506	398.04
337.579	395.3
337.652	397.38
337.725	400.26
337.797	392.71
337.87	396.91
337.943	397.81
338.016	394.99
338.089	393.46
338.162	397.83
338.235	399.11
338.307	397.26
338.38	398.45
338.453	400.03
338.526	399.27
338.598	401.61
338.671	401.47
338.744	402.62
338.817	402.42
338.889	393.54
338.962	397.08
339.035	400.35
339.107	395.44
339.18	401.88
339.253	406.41
339.325	398.39
339.398	397.2
339.47	401.82
339.543	405.69
339.616	409.26
339.688	402.43
339.761	404.15
339.833	406.84
339.906	402.05
339.978	398.03
340.051	404.62
340.123	403.96
340.196	406.12
340.268	399.88
340.341	402.22
340.413	407.61
340.485	400.49
340.558	400.31
340.63	406.38
340.703	401.78
340.775	398.47
340.847	407.84
340.92	401.45
340.992	402.69
341.064	403.43
341.137	407.67
341.209	410.71
341.281	404.01
341.354	405.86
341.426	405.3
341.498	403.35
341.57	410.84
341.643	407.85
341.715	406.38
341.787	408.86
341.859	412.18
341.931	405.51
342.003	408.95
342.076	405.36
342.148	413.39
342.22	407.68
342.292	414.97
342.364	404.32
342.436	413.98
342.508	409.05
342.58	418.58
342.652	415.77
342.724	414.14
342.796	414.51
342.868	414.94
342.94	403
343.012	414.73
343.084	409.75
343.156	414.37
343.228	416.42
343.3	412.43
343.372	415.44
343.444	414.04
343.516	413.03
343.588	419.19
343.66	416.01
343.731	414.31
343.803	414.47
343.875	416.23
343.947	413.36
344.019	418.17
344.09	414.34
344.162	415.22
344.234	420.53
344.306	418.35
344.377	421.03
344.449	417.17
344.521	425.04
344.593	416.99
344.664	416.15
344.736	420.59
344.808	424.26
344.879	421.6
344.951	421.28
345.023	423.17
345.094	421.11
345.166	425.24
345.237	415.11
345.309	421.31
345.38	419.85
345.452	421.92
345.524	420.27
345.595	422.65
345.667	424.78
345.738	422.88
345.81	424.12
345.881	421.98
345.953	425.65
346.024	424.23
346.095	423.62
346.167	427.03
346.238	421.44
346.31	426.99
346.381	427.66
346.452	432.73
346.524	426.96
346.595	428.82
346.666	430.58
346.738	428.42
346.809	430.45
346.88	430.02
346.952	431.99
347.023	433.41
347.094	430.49
347.165	432.53
347.237	433.78
347.308	432.71
347.379	434.99
347.45	430.35
347.521	442.69
347.593	435.44
347.664	441.59
347.735	434.99
347.806	431.53
347.877	439.58
347.948	436.08
348.019	434.15
348.09	437.69
348.161	433.34
348.233	442.12
348.304	444.18
348.375	447.91
348.446	452
348.517	445.57
348.588	444.57
348.659	444.04
348.73	446.21
348.801	445.19
348.871	449.7
348.942	449.15
349.013	447.91
349.084	450.88
349.155	451.35
349.226	448.86
349.297	452.85
349.368	451.02
349.439	455.15
349.509	453.62
349.58	460.42
349.651	457.16
349.722	457.94
349.793	456.04
349.863	456.48
349.934	457.92
350.005	458.95
350.076	460.14
350.146	462.54
350.217	461.2
350.288	460.16
350.358	465.91
350.429	470.35
350.5	470.66
350.57	477.18
350.641	473.03
350.711	476.07
350.782	474.67
350.853	472.45
350.923	476.41
350.994	482.58
351.064	482.5
351.135	479.04
351.205	485.21
351.276	493.37
351.346	488.01
351.417	497.9
351.487	500.34
351.558	505.92
351.628	510.29
351.699	509.87
351.769	512.8
351.84	518.95
351.91	524.54
351.98	530.23
352.051	526.19
352.121	546.09
352.191	538.24
352.262	549.03
352.332	560.66
352.402	562.74
352.473	570.85
352.543	580.6
352.613	588.23
352.683	597.06
352.754	601.56
352.824	617.14
352.894	622.47
352.964	640.09
353.035	649.58
353.105	658.5
353.175	675.6
353.245	687.87
353.315	700.85
353.385	722.08
353.455	732.98
353.526	751.61
353.596	766.67
353.666	784.44
353.736	806.1
353.806	827
353.876	846.9
353.946	873.61
354.016	896.89
354.086	919.07
354.156	949.93
354.226	971.31
354.296	991.93
354.366	1022.45
354.436	1055.65
354.506	1095.55
354.576	1131.77
354.645	1159.28
354.715	1206.48
354.785	1247.63
354.855	1281.22
354.925	1309.33
354.995	1362.01
355.065	1413.03
355.134	1441.67
355.204	1492.1
355.274	1542.34
355.344	1602.08
355.414	1661.86
355.483	1707.81
355.553	1759.57
355.623	1813.35
355.693	1861.61
355.762	1951.12
355.832	2004.27
355.902	2096.08
355.971	2185.29
356.041	2253.68
356.111	2317.78
356.18	2383.91
356.25	2480.11
356.319	2550.73
356.389	2605.47
356.459	2728.93
356.528	2845.17
356.598	2930.4
356.667	3015.03
356.737	3128.32
356.806	3199.11
356.876	3269.98
356.945	3401.28
357.015	3565.16
357.084	3620.15
357.154	3731.62
357.223	3828.25
357.292	3970.82
357.362	4143.25
357.431	4269.82
357.501	4386.45
357.57	4534.56
357.639	4665.96
357.709	4861.48
357.778	5006.02
357.847	5191.33
357.917	5348.74
357.986	5525.4
358.055	5725.82
358.124	5827.64
358.194	6077.47
358.263	6327.65
358.332	6491.6
358.401	6650.72
358.471	6881.93
358.54	7134.69
358.609	7330.81
358.678	7632.75
358.747	7801.48
358.816	7994.54
358.886	8307.76
358.955	8459.91
359.024	8896.03
359.093	9126.57
359.162	9482.95
359.231	9696.24
359.3	9968.1
359.369	10221.92
359.438	10612.82
359.507	10757.04
359.576	11068.44
359.645	11339.34
359.714	11703.79
359.783	12247.75
359.852	12594.43
359.921	12867.78
359.99	12988.36
360.059	13408.1
360.128	13980.88
360.197	14245.86
360.266	14540.97
360.334	15036.97
360.403	15399.29
360.472	15740.99
360.541	16075.67
360.61	16463.36
360.679	16962.53
360.747	17308.49
360.816	17776.57
360.885	18313.05
360.954	18953.88
361.022	19318.84
361.091	19580.99
361.16	20243.03
361.228	20609.35
361.297	20851.46
361.366	21661.69
361.434	21904.15
361.503	22484.05
361.572	23053.44
361.64	23516.99
361.709	24075.15
361.778	24855.46
361.846	25801.38
361.915	26380.25
361.983	26960.18
362.052	27278.88
362.12	28046.37
362.189	28566.43
362.257	29193.66
362.326	29896.76
362.394	30397.78
362.463	31091.63
362.531	31651.45
362.6	31605.33
362.668	32761.5
362.737	33443.5
362.805	34315.47
362.873	34166.34
362.942	34931.22
363.01	35792.19
363.079	36328.32
363.147	37025.27
363.215	37804.48
363.284	38434.24
363.352	39114.78
363.42	39925.77
363.488	40195.55
363.557	40958.61
363.625	41372.64
363.693	41695.32
363.761	42119.84
363.83	42756.86
363.898	43610.82
363.966	44626.07
364.034	45045.4
364.102	45182.56
364.171	46023.09
364.239	46507.15
364.307	47078.79
364.375	46764.77
364.443	47950.88
364.511	48565.83
364.579	49011.76
364.647	49096.65
364.715	50201.46
364.783	50649.78
364.851	51031.1
364.919	51207.84
364.987	51425.41
365.055	51532.79
365.123	52112.12
365.191	52277.89
365.259	52613.83
365.327	52704.75
365.395	53180.13
365.463	53283.99
365.531	53975.48
365.599	54216.73
365.667	54723.89
365.735	54621.93
365.802	54875.18
365.87	55200.31
365.938	55266.12
366.006	55326.1
366.074	55295.64
366.142	55800.69
366.209	55765.71
366.277	55966.08
366.345	55918.38
366.413	56455.14
366.48	56675.76
366.548	56653.4
366.616	56840
366.683	56796.71
366.751	57068.01
366.819	57093.48
366.886	57055.5
366.954	57480.48
367.022	57200.03
367.089	57080.39
367.157	57443.32
367.224	57339.89
367.292	57379.2
367.36	57429.77
367.427	57431.12
367.495	57832
367.562	57879.16
367.63	58012.3
367.697	57734.02
367.765	57705.37
367.832	57576.74
367.9	57870.76
367.967	57653.11
368.034	57439.47
368.102	57364.99
368.169	57635.42
368.237	57579.93
368.304	57450.72
368.371	57161.44
368.439	57245.48
368.506	57234.21
368.573	57493.09
368.641	57273.44
368.708	57077.75
368.775	57080.16
368.843	56904.84
368.91	56952.18
368.977	56805.67
369.044	56759
369.112	56670
369.179	56404.25
369.246	56164.07
369.313	56175.78
369.38	55979.98
369.448	55911.94
369.515	56050.92
369.582	55952.69
369.649	55607
369.716	55852.24
369.783	55736.81
369.85	55652.72
369.917	55646.64
369.984	55043.6
370.052	55045.75
370.119	54948.73
370.186	54933.84
370.253	54686.13
370.32	55187.88
370.387	54846.97
370.454	54584.28
370.521	54594.15
370.587	54074.72
370.654	54187.44
370.721	53657.67
370.788	53840.02
370.855	53472.96
370.922	53522.86
370.989	53113.15
371.056	53421.73
371.123	52953.7
371.189	52257.03
371.256	52217.37
371.323	52050.49
371.39	51537.46
371.457	51363.91
371.523	51259.18
371.59	50510.97
371.657	50430.86
371.724	49951.59
371.79	49194.21
371.857	48389.61
371.924	47683.07
371.991	47021.84
372.057	46000.43
372.124	45644.55
372.191	44714.07
372.257	43724.25
372.324	43251.73
372.39	41848.59
372.457	40918.86
372.524	39685.47
372.59	38699.4
372.657	37137.55
372.723	36312.04
372.79	35032.32
372.856	33278.09
372.923	32050.38
372.989	30787.3
373.056	29083.91
373.122	27487.26
373.189	25956.76
373.255	24715.49
373.322	23386.51
373.388	22025.32
373.454	20872.15
373.521	19386.73
373.587	18264.73
373.654	17186.95
373.72	16363.56
373.786	15039.46
373.853	14135.68
373.919	13114.26
373.985	12110.41
374.052	11388.72
374.118	10489.95
374.184	9939.78
374.25	9190.27
374.317	8532.97
374.383	7850.51
374.449	7315.64
374.515	6804.2
374.581	6398.28
374.648	5966.12
374.714	5551.02
374.78	5149.91
374.846	4820.65
374.912	4509.77
374.978	4192.44
375.044	3917.98
375.11	3642.56
375.177	3444.88
375.243	3227.44
375.309	3054.19
375.375	2897.71
375.441	2725.38
375.507	2559.24
375.573	2425.82
375.639	2269.61
375.705	2165.48
375.771	2064.9
375.837	1967.72
375.903	1875
375.968	1765.57
376.034	1683.67
376.1	1605.7
376.166	1547.1
376.232	1476.66
376.298	1426.94
376.364	1364.08
376.43	1303.25
376.495	1254.39
376.561	1218.53
376.627	1171.87
376.693	1140
376.759	1090.9
376.824	1055.54
376.89	1037.56
376.956	1003.01
377.022	985.9
377.087	952.88
377.153	922.1
377.219	901.68
377.284	875.72
377.35	851.93
377.416	838
377.481	823.15
377.547	798.83
377.613	780.79
377.678	770.18
377.744	752.58
377.809	734.9
377.875	729.29
377.94	722.22
378.006	703.43
378.071	690.87
378.137	679.76
378.202	670.04
378.268	654.09
378.333	646.45
378.399	634.96
378.464	630.89
378.53	621.95
378.595	621.4
378.661	609.27
378.726	598.36
378.791	595.31
378.857	590.17
378.922	582.43
378.987	575.03
379.053	569.54
379.118	565.45
379.183	564.27
379.249	557.57
379.314	548.4
379.379	538.69
379.444	541.04
379.51	538.86
379.575	536.93
379.64	536.09
379.705	521.03
379.771	526.07
379.836	520.83
379.901	516.15
379.966	514.05
380.031	514.62
380.096	508.95
380.161	499.72
380.227	509.41
380.292	503.17
380.357	490.85
380.422	497.79
380.487	489.36
380.552	490.39
380.617	491.76
380.682	492.33
380.747	483.61
380.812	478.75
380.877	479.41
380.942	478.69
381.007	481.36
381.072	477.1
381.137	471.83
381.202	478.49
381.266	479
381.331	463.72
381.396	472.69
381.461	464.66
381.526	468.73
381.591	471.36
381.656	460.58
381.72	465.48
381.785	460.03
381.85	464.3
381.915	458.5
381.979	454.61
382.044	460.34
382.109	454.12
382.174	455.61
382.238	453.05
382.303	452.96
382.368	456.1
382.432	452.99
382.497	451.87
382.562	450.6
382.626	446.92
382.691	448.86
382.756	444.7
382.82	444.96
382.885	449.95
382.949	447.65
383.014	444.01
383.078	439.55
383.143	436.06
383.208	440.23
383.272	445.02
383.337	437.2
383.401	438.76
383.465	439.81
383.53	433.25
383.594	438.13
383.659	441.85
383.723	436.89
383.788	437.35
383.852	439.98
383.916	435.01
383.981	432.44
384.045	428
384.109	435.13
384.174	432.82
384.238	432.97
384.302	429.1
384.367	432.19
384.431	427.8
384.495	430.38
384.56	426.83
384.624	428.95
384.688	427.9
384.752	423.97
384.816	421.89
384.881	420.69
384.945	425.96
385.009	424.54
385.073	430.05
385.137	423.3
385.201	428.12
385.265	423.48
385.33	421.75
385.394	425.91
385.458	422.24
385.522	423.97
385.586	421.11
385.65	421.29
385.714	420.85
385.778	421.93
385.842	419.07
385.906	418.18
385.97	417.63
386.034	420.25
386.098	416.78
386.162	419.33
386.226	418.14
386.29	413.49
386.354	412.4
386.417	413.39
386.481	419.91
386.545	416.81
386.609	414.57
386.673	414.37
386.737	413.94
386.8	412.37
386.864	418.38
386.928	410.18
386.992	416.41
387.056	410.93
387.119	408.66
387.183	413.84
387.247	413.45
387.31	414.69
387.374	406.93
387.438	411.71
387.502	417.36
387.565	411.25
387.629	416.35
387.692	414.31
387.756	404.82
387.82	404.44
387.883	406.64
387.947	405.57
388.01	412.08
388.074	405.02
388.138	405.71
388.201	412.8
388.265	411.2
388.328	408.2
388.392	403.67
388.455	403.9
388.519	409.26
388.582	404.75
388.645	411.74
388.709	413.93
388.772	408.13
388.836	402.54
388.899	404.22
388.962	403.4
389.026	401.39
389.089	401.76
389.153	404.13
389.216	401.04
389.279	401.39
389.343	402.43
389.406	399.98
389.469	401.78
389.532	401.15
389.596	400.84
389.659	395.81
389.722	403.75
389.785	398.1
389.848	400.72
389.912	397.96
389.975	394.18
390.038	399.17
390.101	399.5
390.164	399.37
390.227	397.84
390.291	396.36
390.354	392.67
390.417	395.7
390.48	396.34
390.543	394.73
390.606	401.55
390.669	396.33
390.732	397.17
390.795	401.09
390.858	391.57
390.921	396.51
390.984	389.25
391.047	396.14
391.11	395.96
391.173	393.46
391.236	388.17
391.299	397.21
391.362	395.41
391.424	397.38
391.487	392.22
391.55	391.93
391.613	392.3
391.676	390.4
391.739	392.84
391.802	387.88
391.864	393.56
391.927	397.72
391.99	392.68
392.053	391.02
392.115	393.86
392.178	388.92
392.241	394.96
392.304	389.88
392.366	391.35
392.429	400.81
392.492	389.07
392.554	387.31
392.617	387.65
392.68	386.53
392.742	390.19
392.805	383.74
392.867	391.24
392.93	386.88
392.992	393.11
393.055	388.05
393.118	388.9
393.18	385.26
393.243	389.99
393.305	380.42
393.368	386.32
393.43	388.83
393.493	389.44
393.555	384.02
393.618	381.45
393.68	386.53
393.742	389.61
393.805	383.53
393.867	389.73
393.93	379.31
393.992	383.13
394.054	385.06
394.117	390.48
394.179	382.5
394.241	387.05
394.304	379.09
394.366	380.5
394.428	383.15
394.49	383.81
394.553	382.14
394.615	386.06
394.677	380.96
394.739	382.93
394.802	383.04
394.864	385.32
394.926	378.3
394.988	382.12
395.05	382.12
395.112	380.24
395.174	385.58
395.237	385.84
395.299	380.79
395.361	376.31
395.423	384.28
395.485	373.55
395.547	381
395.609	383.56
395.671	378.63
395.733	382.17
395.795	379.05
395.857	377.74
395.919	378.59
395.981	379.83
396.043	374.41
396.105	380.53
396.167	381.4
396.229	379.05
396.291	379.44
396.352	379.49
396.414	381.43
396.476	376.87
396.538	377.96
396.6	380.73
396.662	380.59
396.724	384.94
396.785	378.23
396.847	374.06
396.909	379.08
396.971	379.6
397.032	376.34
397.094	376.06
397.156	378.37
397.218	377.71
397.279	373.89
397.341	375.8
397.403	375.36
397.464	373.78
397.526	378.71
397.588	381.16
397.649	375.16
397.711	373.14
397.772	377.96
397.834	379.34
397.896	376.55
397.957	373.76
398.019	379.2
398.08	378.85
398.142	369
398.203	371.73
398.265	372.34
398.326	370.38
398.388	372.83
398.449	379.5
398.511	378.11
398.572	374.71
398.633	371.65
398.695	376.4
398.756	381.91
398.818	374.15
398.879	373.58
398.94	369.16
399.002	370.8
399.063	373.4
399.124	379.72
399.186	376.17
399.247	369.86
399.308	379.09
399.369	376.01
399.431	374.19
399.492	380.42
399.553	371.59
399.614	370.41
399.676	374.07
399.737	374.74
399.798	370.43
399.859	373.63
399.92	373.93
399.981	363.62
400.042	373.03
400.104	375.94
400.165	370.93
400.226	376.55
400.287	373.87
400.348	369.07
400.409	372.33
400.47	371.35
400.531	370.96
400.592	368.97
400.653	370.08
400.714	367.83
400.775	370.04
400.836	365.82
400.897	372.03
400.958	366.8
401.019	368.36
401.08	365.9
401.141	364.35
401.201	366.92
401.262	369.86
401.323	365.73
401.384	364.23
401.445	373.32
401.506	371.07
401.567	366.45
401.627	365.94
401.688	368.74
401.749	364.12
401.81	363.71
401.87	365.9
401.931	373.17
401.992	369
402.053	365.39
402.113	373.46
402.174	368.25
402.235	367.93
402.295	364.83
402.356	364.52
402.417	372.22
402.477	367.98
402.538	367.7
402.598	371.61
402.659	370.46
402.719	363.17
402.78	365.07
402.841	374.09
402.901	371.55
402.962	364.95
403.022	362.41
403.083	363.78
403.143	364.55
403.204	359.93
403.264	364.08
403.324	367.52
403.385	362.82
403.445	362.97
403.506	366.31
403.566	372.02
403.627	368.71
403.687	365.19
403.747	368.87
403.808	362.19
403.868	368.71
403.928	374.28
403.989	371.01
404.049	366.69
404.109	363.95
404.169	369.34
404.23	360.28
404.29	365.28
404.35	364.66
404.41	362.97
404.47	364.89
404.531	365.71
404.591	363.71
404.651	418.64
404.711	364.04
404.771	363.42
404.831	364.41
404.892	365.36
404.952	367.29
405.012	364.23
405.072	361.95
405.132	362.68
405.192	366.82
405.252	410.32
405.312	359.38
405.372	363.94
405.432	358.78
405.492	364.96
405.552	366.8
405.612	363.49
405.672	361.58
405.732	362.59
405.792	364.86
405.852	361.84
405.912	370.55
405.971	363.94
406.031	364.78
406.091	362.88
406.151	365.3
406.211	362.5
406.271	358.35
406.33	358.7
406.39	362.15
406.45	362.97
406.51	365.42
406.57	362.99
406.629	363.05
406.689	362.22
406.749	362.39
406.808	365.94
406.868	363.71
406.928	367.43
406.988	362.51
407.047	363.65
407.107	361.41
407.166	366.8
407.226	359.62
407.286	364.61
407.345	358.89
407.405	362.82
407.464	364.9
407.524	365.33
407.584	359.35
407.643	364.84
407.703	365.09
407.762	363.29
407.822	359.91
407.881	354.71
407.941	358.35
408	358.99
408.059	362.24
408.119	362.97
408.178	367.63
408.238	365.61
408.297	359.99
408.356	356.99
408.416	358.56
408.475	356.96
408.535	358.9
408.594	364.04
408.653	357.68
408.712	355.29
408.772	355.93
408.831	358.11
408.89	359.3
408.95	362.19
409.009	358.73
409.068	358.89
409.127	365.96
409.186	356.04
409.246	358.99
409.305	361.73
409.364	357.54
409.423	357.57
409.482	363.23
409.541	354.78
409.6	352.6
409.66	356.88
409.719	359.5
409.778	362.71
409.837	356.97
409.896	357.42
409.955	360.95
410.014	358.18
410.073	365.87
410.132	359.68
410.191	359.74
410.25	360.06
410.309	356.48
410.368	360.92
410.427	356.07
410.486	361.27
410.545	356.79
410.603	356.16
410.662	357.94
410.721	356.39
410.78	359.07
410.839	353.1
410.898	356.15
410.957	358.35
411.015	358.95
411.074	359.48
411.133	357.08
411.192	357.51
411.25	359.09
411.309	357.4
411.368	356.38
411.427	356.73
411.485	357.33
411.544	356.58
411.603	356.97
411.661	355.32
411.72	357.4
411.779	365.61
411.837	358.58
411.896	351.75
411.955	361.27
412.013	351.69
412.072	356.44
412.13	360.51
412.189	357.02
412.247	355.78
412.306	356.5
412.364	362.68
412.423	353.94
412.481	356.62
412.54	355.95
412.598	356.7
412.657	353.99
412.715	358.92
412.774	352.72
412.832	355.2
412.891	360.82
412.949	359.64
413.007	359.99
413.066	360.97
413.124	357.28
413.182	353.85
413.241	360.62
413.299	353.16
413.357	351.23
413.416	354.2
413.474	355.06
413.532	357.68
413.59	355.86
413.649	355.43
413.707	348.85
413.765	356.38
413.823	358.3
413.881	359.53
413.94	359.31
413.998	357.72
414.056	354.39
414.114	352.01
414.172	350.53
414.23	355.27
414.288	357.13
414.347	358.34
414.405	352.76
414.463	357.89
414.521	355.01
414.579	355.81
414.637	358.75
414.695	359.64
414.753	356.56
414.811	351.86
414.869	350.07
414.927	358.49
414.985	349.44
415.043	355.12
415.101	364.64
415.158	355.76
415.216	352.3
415.274	360.08
415.332	356.47
415.39	351.19
415.448	351.94
415.506	355.98
415.563	349.76
415.621	353.31
415.679	353.01
415.737	356.8
415.795	354.22
415.852	356.79
415.91	355.06
415.968	354.72
416.026	360.98
416.083	350.04
416.141	349.93
416.199	351.32
416.256	353.47
416.314	354.69
416.372	350.16
416.429	351.34
416.487	352.24
416.544	356.56
416.602	355.06
416.66	352.26
416.717	348.81
416.775	356.16
416.832	351.55
416.89	354.78
416.947	357.75
417.005	347.16
417.062	354.49
417.12	347.45
417.177	350.68
417.235	353.61
417.292	351.02
417.35	350.9
417.407	355.23
417.464	355.6
417.522	345.54
417.579	357.31
417.637	355
417.694	361.04
417.751	354.08
417.809	354.88
417.866	349.53
417.923	362.36
417.981	348.02
418.038	350.19
418.095	352.7
418.152	349.95
418.21	350.56
418.267	355.17
418.324	354.06
418.381	355.93
418.438	350.07
418.496	355.46
418.553	350.15
418.61	350.07
418.667	348.2
418.724	347.08
418.781	347.38
418.838	348.45
418.895	351.92
418.952	356.39
419.01	350.73
419.067	351.39
419.124	355.46
419.181	354.89
419.238	350.1
419.295	351.83
419.352	350.45
419.409	350.1
419.466	349.18
419.523	352.17
419.579	353.64
419.636	348.37
419.693	352.01
419.75	349.93
419.807	355.92
419.864	356.31
419.921	347.71
419.978	352.52
420.034	354.48
420.091	348.57
420.148	357.08
420.205	356.05
420.262	349.56
420.318	351.77
420.375	349.72
420.432	350.8
420.489	351.26
420.545	348.28
420.602	350.68
420.659	351.2
420.715	351.06
420.772	352.43
420.829	346.75
420.885	351.1
420.942	352.4
420.999	348.63
421.055	348.55
421.112	349.32
421.168	349.84
421.225	352.18
421.282	357.42
421.338	347.47
421.395	354.36
421.451	350.27
421.508	356.09
421.564	355.08
421.621	349.79
421.677	346.72
421.734	353.51
421.79	348.36
421.846	349.82
421.903	351.11
421.959	348.29
422.016	343.76
422.072	353.45
422.128	348.32
422.185	346.55
422.241	350.51
422.297	349.73
422.354	348.06
422.41	346.9
422.466	353.39
422.523	349.07
422.579	342.77
422.635	349.61
422.691	353.12
422.748	350.51
422.804	351.77
422.86	362.02
422.916	353.31
422.972	348.23
423.029	345.14
423.085	351.4
423.141	354.16
423.197	353.56
423.253	347.99
423.309	355.14
423.365	352.03
423.421	348.51
423.477	351.51
423.533	351.14
423.589	346.99
423.645	349.03
423.701	349.41
423.757	350.25
423.813	352.34
423.869	345.8
423.925	348.85
423.981	348.81
424.037	347.61
424.093	348.81
424.149	344.18
424.205	349.72
424.261	353.97
424.317	347.73
424.373	345.83
424.428	354.36
424.484	350.88
424.54	349.09
424.596	347.96
424.652	343.4
424.708	353.54
424.763	343.73
424.819	348.49
424.875	342.91
424.931	348.83
424.986	348.31
425.042	343.3
425.098	353.31
425.153	354.57
425.209	344.25
425.265	348.23
425.32	349.98
425.376	348.98
425.432	349.49
425.487	341.67
425.543	350.53
425.598	346.06
425.654	347.05
425.709	348.48
425.765	345.16
425.82	344.77
425.876	346.41
425.932	346.66
425.987	343.09
426.042	350.54
426.098	351.25
426.153	349.11
426.209	346.98
426.264	345.26
426.32	340.9
426.375	344.67
426.43	346.92
426.486	346.33
426.541	354.29
426.597	350.51
426.652	350.01
426.707	342.92
426.763	345.83
426.818	345.2
426.873	344.04
426.928	348.17
426.984	346.04
427.039	342.31
427.094	347.48
427.149	348.54
427.205	343.58
427.26	348.66
427.315	345.63
427.37	353.18
427.425	345.55
427.48	349.53
427.536	348.54
427.591	346.93
427.646	350.19
427.701	347.08
427.756	345.03
427.811	348.49
427.866	350.65
427.921	351.49
427.976	350.1
428.031	348.57
428.086	345.68
428.141	346.26
428.196	346.53
428.251	344.27
428.306	343.47
428.361	344.27
428.416	347.85
428.471	349.78
428.526	348.85
428.581	344.73
428.636	342.89
428.691	348.03
428.745	351.28
428.8	340.55
428.855	345.62
428.91	344.97
428.965	343.46
429.02	344.85
429.074	343.75
429.129	350.8
429.184	347.12
429.239	345.29
429.293	341.31
429.348	343.53
429.403	342.19
429.457	349.06
429.512	342.78
429.567	346.03
429.621	345.29
429.676	349.33
429.731	345.22
429.785	340.37
429.84	347.83
429.895	349.23
429.949	347.68
430.004	345.06
430.058	350.25
430.113	342.39
430.167	345.17
430.222	346.03
430.276	346.52
430.331	345.63
430.385	348.63
430.44	341.15
430.494	349.89
430.549	341.93
430.603	350.45
430.657	345.91
430.712	345.95
430.766	345.31
430.821	344.5
430.875	345.29
430.929	347.24
430.984	345.85
431.038	344.13
431.092	346.49
431.147	341.25
431.201	342.34
431.255	344.7
431.309	343.79
431.364	344.27
431.418	345.08
431.472	350.93
431.526	348.69
431.581	347.56
431.635	348.8
431.689	345.81
431.743	343.64
431.797	345.94
431.851	342.72
431.906	344.27
431.96	348.45
432.014	340.09
432.068	346.11
432.122	342.26
432.176	341.53
432.23	343.92
432.284	342.89
432.338	350.84
432.392	342.65
432.446	345.1
432.5	351.42
432.554	347.74
432.608	347.67
432.662	341.07
432.716	346.11
432.77	344.53
432.824	342.37
432.878	343.27
432.931	346.89
432.985	346.53
433.039	339.48
433.093	350.48
433.147	346.09
433.201	348.57
433.254	339.51
433.308	341.19
433.362	344.71
433.416	358.04
433.47	346.26
433.523	341.13
433.577	345.16
433.631	343.89
433.684	345.81
433.738	353.05
433.792	344.31
433.846	346.06
433.899	344.27
433.953	345.65
434.006	343.2
434.06	345.31
434.114	341.74
434.167	341.74
434.221	341.74
