Data from FLMS155811_13-39-15-538.txt Node
Date: Tue Dec 31 13:39:15 MST 2019
User: ECEn Student
Spectrometer: FLMS15581
Trigger mode: 0
Integration Time (sec): 1.000000E-1
Scans to average: 1
Electric dark correction enabled: true
Nonlinearity correction enabled: false
Boxcar width: 0
XAxis mode: Wavelengths
Number of Pixels in Spectrum: 2048
>>>>>Begin Spectral Data<<<<<
298.026	-15.5
298.106	-15.5
298.185	-15.5
298.265	-8.61
298.344	-54.53
298.424	-105.04
298.503	-31.57
298.583	-38.46
298.662	-95.86
298.741	-40.75
298.821	-47.64
298.9	-88.97
298.98	-38.46
299.059	21.24
299.138	2.87
299.217	67.16
299.297	32.72
299.376	67.16
299.455	87.82
299.535	60.27
299.614	147.52
299.693	195.73
299.772	156.7
299.852	163.59
299.931	241.66
300.01	280.69
300.089	243.95
300.168	271.5
300.247	177.37
300.327	248.54
300.406	301.35
300.485	292.17
300.564	310.54
300.643	303.65
300.722	317.42
300.801	315.13
300.88	374.82
300.959	397.78
301.038	322.02
301.117	411.56
301.196	413.86
301.275	374.82
301.354	409.26
301.433	349.57
301.512	370.23
301.591	432.22
301.67	374.82
301.749	425.34
301.828	390.9
301.907	404.67
301.985	432.22
302.064	397.78
302.143	381.71
302.222	342.68
302.301	413.86
302.38	367.94
302.458	354.16
302.537	425.34
302.616	349.57
302.695	404.67
302.773	381.71
302.852	374.82
302.931	427.63
303.01	312.83
303.088	354.16
303.167	365.64
303.246	342.68
303.324	333.5
303.403	331.2
303.481	319.72
303.56	397.78
303.639	285.28
303.717	354.16
303.796	331.2
303.874	342.68
303.953	344.98
304.032	317.42
304.11	315.13
304.189	340.38
304.267	390.9
304.346	292.17
304.424	361.05
304.502	322.02
304.581	285.28
304.659	315.13
304.738	406.97
304.816	335.79
304.895	390.9
304.973	280.69
305.051	413.86
305.13	367.94
305.208	342.68
305.286	292.17
305.365	319.72
305.443	372.53
305.521	344.98
305.6	400.08
305.678	393.19
305.756	370.23
305.834	365.64
305.913	388.6
305.991	319.72
306.069	324.31
306.147	363.34
306.225	342.68
306.304	340.38
306.382	411.56
306.46	335.79
306.538	370.23
306.616	358.75
306.694	413.86
306.772	388.6
306.85	351.86
306.929	340.38
307.007	331.2
307.085	395.49
307.163	340.38
307.241	400.08
307.319	289.87
307.397	335.79
307.475	303.65
307.553	372.53
307.631	361.05
307.709	351.86
307.786	361.05
307.864	331.2
307.942	397.78
308.02	335.79
308.098	308.24
308.176	358.75
308.254	363.34
308.332	395.49
308.409	370.23
308.487	365.64
308.565	363.34
308.643	356.46
308.721	299.06
308.798	326.61
308.876	338.09
308.954	342.68
309.032	379.42
309.109	305.94
309.187	416.15
309.265	411.56
309.342	377.12
309.42	381.71
309.498	349.57
309.575	409.26
309.653	402.38
309.731	340.38
309.808	370.23
309.886	280.69
309.963	374.82
310.041	342.68
310.119	363.34
310.196	317.42
310.274	351.86
310.351	351.86
310.429	335.79
310.506	328.9
310.584	384.01
310.661	358.75
310.738	432.22
310.816	315.13
310.893	402.38
310.971	342.68
311.048	335.79
311.126	331.2
311.203	377.12
311.28	315.13
311.358	427.63
311.435	356.46
311.512	386.3
311.59	317.42
311.667	358.75
311.744	347.27
311.821	393.19
311.899	317.42
311.976	374.82
312.053	322.02
312.13	374.82
312.208	370.23
312.285	370.23
312.362	406.97
312.439	432.22
312.516	416.15
312.593	386.3
312.671	326.61
312.748	377.12
312.825	367.94
312.902	409.26
312.979	358.75
313.056	397.78
313.133	404.67
313.21	335.79
313.287	393.19
313.364	331.2
313.441	468.96
313.518	381.71
313.595	361.05
313.672	439.11
313.749	423.04
313.826	400.08
313.903	361.05
313.98	400.08
314.057	397.78
314.134	363.34
314.211	429.93
314.287	381.71
314.364	397.78
314.441	381.71
314.518	420.74
314.595	365.64
314.672	402.38
314.748	372.53
314.825	333.5
314.902	452.89
314.979	425.34
315.055	402.38
315.132	416.15
315.209	427.63
315.286	409.26
315.362	395.49
315.439	379.42
315.516	459.78
315.592	452.89
315.669	361.05
315.746	450.59
315.822	395.49
315.899	400.08
315.975	358.75
316.052	367.94
316.128	308.24
316.205	409.26
316.282	388.6
316.358	381.71
316.435	372.53
316.511	397.78
316.588	379.42
316.664	395.49
316.741	397.78
316.817	384.01
316.893	423.04
316.97	390.9
317.046	363.34
317.123	450.59
317.199	379.42
317.275	390.9
317.352	402.38
317.428	365.64
317.504	363.34
317.581	358.75
317.657	328.9
317.733	448.3
317.81	384.01
317.886	406.97
317.962	326.61
318.038	356.46
318.115	393.19
318.191	429.93
318.267	358.75
318.343	361.05
318.419	365.64
318.496	361.05
318.572	365.64
318.648	386.3
318.724	381.71
318.8	384.01
318.876	349.57
318.952	420.74
319.028	340.38
319.105	416.15
319.181	338.09
319.257	358.75
319.333	356.46
319.409	299.06
319.485	340.38
319.561	361.05
319.637	354.16
319.713	347.27
319.789	397.78
319.865	400.08
319.94	386.3
320.016	379.42
320.092	347.27
320.168	427.63
320.244	425.34
320.32	358.75
320.396	377.12
320.472	429.93
320.547	365.64
320.623	436.82
320.699	423.04
320.775	409.26
320.851	356.46
320.926	347.27
321.002	397.78
321.078	381.71
321.154	338.09
321.229	388.6
321.305	328.9
321.381	312.83
321.456	338.09
321.532	448.3
321.608	386.3
321.683	374.82
321.759	372.53
321.835	351.86
321.91	411.56
321.986	413.86
322.061	361.05
322.137	388.6
322.212	312.83
322.288	416.15
322.364	404.67
322.439	464.37
322.515	409.26
322.59	423.04
322.666	367.94
322.741	354.16
322.816	411.56
322.892	356.46
322.967	446
323.043	367.94
323.118	379.42
323.193	439.11
323.269	402.38
323.344	402.38
323.42	418.45
323.495	446
323.57	439.11
323.646	388.6
323.721	420.74
323.796	462.07
323.871	420.74
323.947	365.64
324.022	427.63
324.097	406.97
324.172	478.14
324.248	393.19
324.323	342.68
324.398	402.38
324.473	377.12
324.548	404.67
324.623	374.82
324.699	395.49
324.774	462.07
324.849	400.08
324.924	395.49
324.999	416.15
325.074	363.34
325.149	372.53
325.224	347.27
325.299	404.67
325.374	427.63
325.449	397.78
325.524	425.34
325.599	411.56
325.674	340.38
325.749	397.78
325.824	423.04
325.899	473.55
325.974	393.19
326.049	413.86
326.124	395.49
326.199	390.9
326.273	429.93
326.348	429.93
326.423	390.9
326.498	473.55
326.573	384.01
326.648	319.72
326.722	301.35
326.797	397.78
326.872	425.34
326.947	361.05
327.021	365.64
327.096	361.05
327.171	381.71
327.245	409.26
327.32	381.71
327.395	393.19
327.47	404.67
327.544	397.78
327.619	361.05
327.693	411.56
327.768	397.78
327.843	381.71
327.917	395.49
327.992	358.75
328.066	393.19
328.141	344.98
328.215	374.82
328.29	372.53
328.364	335.79
328.439	443.7
328.513	379.42
328.588	462.07
328.662	342.68
328.737	439.11
328.811	358.75
328.886	409.26
328.96	423.04
329.035	409.26
329.109	452.89
329.183	367.94
329.258	425.34
329.332	413.86
329.406	356.46
329.481	432.22
329.555	423.04
329.629	381.71
329.704	390.9
329.778	434.52
329.852	395.49
329.926	418.45
330.001	420.74
330.075	416.15
330.149	432.22
330.223	459.78
330.297	384.01
330.372	425.34
330.446	418.45
330.52	377.12
330.594	367.94
330.668	434.52
330.742	404.67
330.816	356.46
330.89	413.86
330.964	409.26
331.038	386.3
331.113	354.16
331.187	393.19
331.261	400.08
331.335	425.34
331.409	381.71
331.483	416.15
331.557	365.64
331.63	351.86
331.704	372.53
331.778	333.5
331.852	349.57
331.926	361.05
332	409.26
332.074	370.23
332.148	395.49
332.222	363.34
332.295	413.86
332.369	411.56
332.443	404.67
332.517	418.45
332.591	425.34
332.665	386.3
332.738	416.15
332.812	446
332.886	379.42
332.959	395.49
333.033	372.53
333.107	386.3
333.181	397.78
333.254	358.75
333.328	459.78
333.402	425.34
333.475	400.08
333.549	432.22
333.622	303.65
333.696	446
333.77	409.26
333.843	439.11
333.917	381.71
333.99	413.86
334.064	406.97
334.137	406.97
334.211	397.78
334.284	365.64
334.358	459.78
334.431	423.04
334.505	400.08
334.578	418.45
334.652	393.19
334.725	427.63
334.799	436.82
334.872	471.26
334.945	448.3
335.019	420.74
335.092	342.68
335.165	338.09
335.239	427.63
335.312	411.56
335.385	397.78
335.459	377.12
335.532	429.93
335.605	388.6
335.678	443.7
335.752	450.59
335.825	418.45
335.898	452.89
335.971	381.71
336.045	381.71
336.118	427.63
336.191	452.89
336.264	423.04
336.337	475.85
336.41	384.01
336.483	416.15
336.557	418.45
336.63	372.53
336.703	365.64
336.776	439.11
336.849	400.08
336.922	370.23
336.995	406.97
337.068	471.26
337.141	384.01
337.214	448.3
337.287	390.9
337.36	432.22
337.433	432.22
337.506	384.01
337.579	489.62
337.652	448.3
337.725	450.59
337.797	404.67
337.87	434.52
337.943	427.63
338.016	388.6
338.089	372.53
338.162	455.18
338.235	390.9
338.307	397.78
338.38	372.53
338.453	411.56
338.526	425.34
338.598	462.07
338.671	395.49
338.744	370.23
338.817	462.07
338.889	423.04
338.962	377.12
339.035	441.41
339.107	372.53
339.18	381.71
339.253	432.22
339.325	432.22
339.398	473.55
339.47	434.52
339.543	416.15
339.616	372.53
339.688	386.3
339.761	420.74
339.833	358.75
339.906	404.67
339.978	429.93
340.051	409.26
340.123	420.74
340.196	404.67
340.268	395.49
340.341	494.22
340.413	411.56
340.485	439.11
340.558	436.82
340.63	400.08
340.703	462.07
340.775	462.07
340.847	411.56
340.92	425.34
340.992	374.82
341.064	418.45
341.137	308.24
341.209	384.01
341.281	390.9
341.354	434.52
341.426	397.78
341.498	347.27
341.57	439.11
341.643	434.52
341.715	450.59
341.787	423.04
341.859	406.97
341.931	420.74
342.003	358.75
342.076	432.22
342.148	427.63
342.22	446
342.292	443.7
342.364	459.78
342.436	473.55
342.508	439.11
342.58	416.15
342.652	409.26
342.724	413.86
342.796	393.19
342.868	466.66
342.94	367.94
343.012	416.15
343.084	464.37
343.156	489.62
343.228	402.38
343.3	413.86
343.372	404.67
343.444	439.11
343.516	450.59
343.588	393.19
343.66	455.18
343.731	400.08
343.803	434.52
343.875	482.74
343.947	462.07
344.019	411.56
344.09	406.97
344.162	455.18
344.234	466.66
344.306	441.41
344.377	397.78
344.449	427.63
344.521	420.74
344.593	462.07
344.664	381.71
344.736	446
344.808	370.23
344.879	425.34
344.951	418.45
345.023	457.48
345.094	411.56
345.166	468.96
345.237	372.53
345.309	471.26
345.38	416.15
345.452	374.82
345.524	386.3
345.595	443.7
345.667	459.78
345.738	377.12
345.81	420.74
345.881	473.55
345.953	450.59
346.024	381.71
346.095	413.86
346.167	466.66
346.238	411.56
346.31	446
346.381	411.56
346.452	423.04
346.524	374.82
346.595	443.7
346.666	397.78
346.738	480.44
346.809	354.16
346.88	425.34
346.952	400.08
347.023	473.55
347.094	390.9
347.165	475.85
347.237	450.59
347.308	420.74
347.379	489.62
347.45	452.89
347.521	466.66
347.593	418.45
347.664	416.15
347.735	432.22
347.806	409.26
347.877	416.15
347.948	439.11
348.019	322.02
348.09	409.26
348.161	416.15
348.233	436.82
348.304	443.7
348.375	386.3
348.446	429.93
348.517	386.3
348.588	503.4
348.659	459.78
348.73	418.45
348.801	416.15
348.871	464.37
348.942	443.7
349.013	482.74
349.084	457.48
349.155	432.22
349.226	475.85
349.297	395.49
349.368	475.85
349.439	439.11
349.509	432.22
349.58	452.89
349.651	468.96
349.722	462.07
349.793	471.26
349.863	423.04
349.934	482.74
350.005	427.63
350.076	473.55
350.146	423.04
350.217	441.41
350.288	480.44
350.358	416.15
350.429	489.62
350.5	524.06
350.57	505.7
350.641	464.37
350.711	446
350.782	501.1
350.853	487.33
350.923	487.33
350.994	521.77
351.064	549.32
351.135	498.81
351.205	569.98
351.276	436.82
351.346	457.48
351.417	521.77
351.487	569.98
351.558	533.25
351.628	526.36
351.699	526.36
351.769	489.62
351.84	432.22
351.91	556.21
351.98	510.29
352.051	519.47
352.121	482.74
352.191	560.8
352.262	563.1
352.332	544.73
352.402	609.02
352.473	535.54
352.543	629.68
352.613	579.17
352.683	592.94
352.754	606.72
352.824	611.31
352.894	636.57
352.964	716.93
353.035	673.3
353.105	689.38
353.175	710.04
353.245	693.97
353.315	749.07
353.385	804.18
353.455	827.14
353.526	744.48
353.596	792.7
353.666	843.21
353.736	829.43
353.806	817.95
353.876	974.08
353.946	914.39
354.016	935.05
354.086	974.08
354.156	1024.59
354.226	1038.37
354.296	1040.67
354.366	1022.3
354.436	1148.58
354.506	1146.28
354.576	1148.58
354.645	1116.43
354.715	1272.56
354.785	1332.26
354.855	1380.48
354.925	1332.26
354.995	1380.48
355.065	1444.76
355.134	1506.76
355.204	1442.47
355.274	1621.56
355.344	1685.84
355.414	1626.15
355.483	1791.46
355.553	1837.38
355.623	1835.09
355.693	1963.66
355.762	2011.88
355.832	2099.13
355.902	2168.01
355.971	2193.26
356.041	2179.49
356.111	2310.36
356.18	2381.54
356.25	2411.38
356.319	2634.1
356.389	2700.68
356.459	2785.63
356.528	2797.11
356.598	2918.8
356.667	3056.56
356.737	3072.63
356.806	3288.46
356.876	3336.68
356.945	3460.66
357.015	3483.62
357.084	3593.83
357.154	3729.29
357.223	3766.03
357.292	3974.97
357.362	4101.25
357.431	4078.29
357.501	4326.26
357.57	4372.18
357.639	4521.42
357.709	4576.52
357.778	4932.4
357.847	4955.36
357.917	5148.23
357.986	5446.71
358.055	5377.83
358.124	5593.65
358.194	5761.26
358.263	5775.04
358.332	6107.96
358.401	6146.99
358.471	6433.99
358.54	6590.12
358.609	6785.28
358.678	7118.2
358.747	7104.43
358.816	7295
358.886	7432.76
358.955	7712.87
359.024	8045.79
359.093	8195.03
359.162	8408.56
359.231	8628.98
359.3	8980.27
359.369	8982.56
359.438	9248.9
359.507	9503.76
359.576	9834.38
359.645	10325.73
359.714	10722.94
359.783	10915.8
359.852	11028.31
359.921	11184.44
359.99	11659.71
360.059	12153.35
360.128	12327.85
360.197	12465.61
360.266	12901.85
360.334	13356.46
360.403	13772.04
360.472	14029.19
360.541	14295.53
360.61	14564.16
360.679	15103.72
360.747	15542.26
360.816	15634.1
360.885	16194.33
360.954	16304.54
361.022	16850.99
361.091	17441.06
361.16	17767.1
361.228	18060.98
361.297	18373.24
361.366	18839.33
361.434	19429.41
361.503	19909.27
361.572	20216.94
361.64	20694.51
361.709	21279.99
361.778	21346.57
361.846	21635.87
361.915	22428
361.983	22974.45
362.052	23429.06
362.12	24039.79
362.189	24538.03
362.257	25017.89
362.326	25424.29
362.394	26165.9
362.463	26402.39
362.531	27095.78
362.6	27309.31
362.668	28140.47
362.737	28484.87
362.805	28592.78
362.873	29573.18
362.942	30222.95
363.01	30753.33
363.079	31214.82
363.147	31602.85
363.215	32172.26
363.284	32684.27
363.352	33699.11
363.42	33896.56
363.488	34624.4
363.557	35019.31
363.625	35682.86
363.693	36107.62
363.761	36881.38
363.83	37039.8
363.898	38187.8
363.966	38444.96
364.034	38800.84
364.102	39778.94
364.171	40226.66
364.239	40750.15
364.307	41016.49
364.375	41528.5
364.443	42270.11
364.511	42623.69
364.579	43385.97
364.647	44203.35
364.715	44655.66
364.783	45009.25
364.851	45144.71
364.919	46003.42
364.987	46600.38
365.055	47110.1
365.123	47548.64
365.191	48375.2
365.259	48189.22
365.327	48441.78
365.395	49275.23
365.463	49548.46
365.531	50117.87
365.599	50241.85
365.667	51015.61
365.735	50779.12
365.802	51683.75
365.87	51541.4
365.938	51727.37
366.006	52319.74
366.074	52900.63
366.142	53206
366.209	53336.88
366.277	53433.31
366.345	54023.38
366.413	54089.97
366.48	54287.42
366.548	54597.38
366.616	54769.59
366.683	54806.32
366.751	55235.68
366.819	55196.64
366.886	55772.94
366.954	55515.79
367.022	55630.59
367.089	55848.71
367.157	56041.57
367.224	56177.04
367.292	56434.19
367.36	56427.3
367.427	56450.26
367.495	56744.15
367.562	56571.95
367.63	56810.74
367.697	56863.55
367.765	57168.92
367.832	57021.97
367.9	57187.28
367.967	57205.65
368.034	57044.93
368.102	57269.94
368.169	57329.64
368.237	57320.45
368.304	57421.48
368.371	57230.91
368.439	57311.27
368.506	57423.77
368.573	57621.23
368.641	57556.94
368.708	57357.19
368.775	57593.68
368.843	57214.84
368.91	57616.64
368.977	57175.8
369.044	57391.63
369.112	57286.01
369.179	57205.65
369.246	57380.15
369.313	57389.33
369.38	57249.28
369.448	57352.6
369.515	57173.51
369.582	56985.23
369.649	56907.17
369.716	56838.29
369.783	56925.54
369.85	56895.69
369.917	56728.08
369.984	56647.72
370.052	56769.41
370.119	56762.52
370.186	56629.35
370.253	56278.06
370.32	56160.97
370.387	56271.18
370.454	55722.43
370.521	55986.47
370.587	55460.68
370.654	55339
370.721	55068.07
370.788	54787.95
370.855	54393.04
370.922	53982.05
370.989	53518.26
371.056	53300.14
371.123	52572.3
371.189	52296.78
371.256	51213.07
371.323	50590.85
371.39	49950.26
371.457	49002.01
371.523	48184.63
371.59	46375.37
371.657	45661.32
371.724	44582.19
371.79	42901.51
371.857	41216.24
371.924	40228.96
371.991	38525.32
372.057	36727.54
372.124	35202.99
372.191	33382.26
372.257	31772.75
372.324	30810.73
372.39	28636.4
372.457	27065.93
372.524	25603.38
372.59	23872.19
372.657	22388.96
372.723	21050.39
372.79	19654.42
372.856	18591.36
372.923	17239.01
372.989	15794.82
373.056	14736.36
373.122	13661.83
373.189	12995.99
373.255	11829.62
373.322	10991.57
373.388	10514
373.454	9747.13
373.521	8881.54
373.587	8390.19
373.654	7740.42
373.72	7193.97
373.786	6640.63
373.853	6181.43
373.919	5807.18
373.985	5325.02
374.052	5083.94
374.118	4702.8
374.184	4261.97
374.25	4018.59
374.317	3887.72
374.383	3506.58
374.449	3481.32
374.515	3159.88
374.581	3015.23
374.648	2746.6
374.714	2546.85
374.78	2466.49
374.846	2296.58
374.912	2209.34
374.978	2131.27
375.044	1933.81
375.11	1977.44
375.177	1713.4
375.243	1738.65
375.309	1525.12
375.375	1495.28
375.441	1424.1
375.507	1426.4
375.573	1465.43
375.639	1332.26
375.705	1238.12
375.771	1245.01
375.837	1111.84
375.903	1132.51
375.968	1125.62
376.034	1141.69
376.1	1017.71
376.166	896.02
376.232	946.53
376.298	916.68
376.364	836.32
376.43	875.35
376.495	884.54
376.561	918.98
376.627	811.07
376.693	753.67
376.759	749.07
376.824	749.07
376.89	703.15
376.956	721.52
377.022	712.34
377.087	677.9
377.153	737.59
377.219	705.45
377.284	687.08
377.35	618.2
377.416	650.34
377.481	703.15
377.547	664.12
377.613	631.98
377.678	537.84
377.744	631.98
377.809	609.02
377.875	666.42
377.94	517.18
378.006	549.32
378.071	530.95
378.137	583.76
378.202	673.3
378.268	606.72
378.333	553.91
378.399	521.77
378.464	567.69
378.53	510.29
378.595	505.7
378.661	482.74
378.726	494.22
378.791	512.58
378.857	576.87
378.922	547.02
378.987	475.85
379.053	567.69
379.118	595.24
379.183	544.73
379.249	517.18
379.314	475.85
379.379	471.26
379.444	489.62
379.51	390.9
379.575	413.86
379.64	498.81
379.705	496.51
379.771	524.06
379.836	471.26
379.901	487.33
379.966	487.33
380.031	459.78
380.096	510.29
380.161	482.74
380.227	459.78
380.292	528.66
380.357	482.74
380.422	448.3
380.487	466.66
380.552	537.84
380.617	434.52
380.682	489.62
380.747	411.56
380.812	512.58
380.877	540.14
380.942	482.74
381.007	482.74
381.072	466.66
381.137	443.7
381.202	429.93
381.266	411.56
381.331	512.58
381.396	420.74
381.461	390.9
381.526	452.89
381.591	434.52
381.656	494.22
381.72	466.66
381.785	384.01
381.85	514.88
381.915	510.29
381.979	512.58
382.044	480.44
382.109	462.07
382.174	473.55
382.238	480.44
382.303	471.26
382.368	455.18
382.432	436.82
382.497	420.74
382.562	496.51
382.626	446
382.691	466.66
382.756	388.6
382.82	439.11
382.885	381.71
382.949	434.52
383.014	434.52
383.078	501.1
383.143	434.52
383.208	406.97
383.272	441.41
383.337	427.63
383.401	402.38
383.465	409.26
383.53	395.49
383.594	427.63
383.659	411.56
383.723	411.56
383.788	411.56
383.852	468.96
383.916	452.89
383.981	471.26
384.045	411.56
384.109	429.93
384.174	381.71
384.238	427.63
384.302	482.74
384.367	475.85
384.431	416.15
384.495	374.82
384.56	420.74
384.624	448.3
384.688	480.44
384.752	395.49
384.816	406.97
384.881	388.6
384.945	434.52
385.009	390.9
385.073	363.34
385.137	450.59
385.201	409.26
385.265	386.3
385.33	416.15
385.394	388.6
385.458	478.14
385.522	434.52
385.586	377.12
385.65	491.92
385.714	455.18
385.778	436.82
385.842	478.14
385.906	436.82
385.97	374.82
386.034	406.97
386.098	388.6
386.162	459.78
386.226	333.5
386.29	402.38
386.354	372.53
386.417	423.04
386.481	432.22
386.545	464.37
386.609	402.38
386.673	379.42
386.737	418.45
386.8	423.04
386.864	448.3
386.928	429.93
386.992	446
387.056	452.89
387.119	423.04
387.183	397.78
387.247	388.6
387.31	475.85
387.374	354.16
387.438	372.53
387.502	404.67
387.565	413.86
387.629	448.3
387.692	416.15
387.756	416.15
387.82	418.45
387.883	432.22
387.947	420.74
388.01	395.49
388.074	409.26
388.138	466.66
388.201	386.3
388.265	434.52
388.328	427.63
388.392	425.34
388.455	416.15
388.519	404.67
388.582	404.67
388.645	402.38
388.709	395.49
388.772	423.04
388.836	413.86
388.899	468.96
388.962	443.7
389.026	400.08
389.089	409.26
389.153	381.71
389.216	436.82
389.279	418.45
389.343	462.07
389.406	370.23
389.469	416.15
389.532	457.48
389.596	374.82
389.659	367.94
389.722	400.08
389.785	390.9
389.848	429.93
389.912	434.52
389.975	390.9
390.038	406.97
390.101	420.74
390.164	365.64
390.227	423.04
390.291	411.56
390.354	427.63
390.417	397.78
390.48	361.05
390.543	377.12
390.606	338.09
390.669	411.56
390.732	450.59
390.795	367.94
390.858	413.86
390.921	416.15
390.984	425.34
391.047	409.26
391.11	427.63
391.173	427.63
391.236	450.59
391.299	423.04
391.362	411.56
391.424	434.52
391.487	388.6
391.55	436.82
391.613	400.08
391.676	429.93
391.739	381.71
391.802	317.42
391.864	361.05
391.927	452.89
391.99	434.52
392.053	434.52
392.115	384.01
392.178	423.04
392.241	404.67
392.304	372.53
392.366	418.45
392.429	361.05
392.492	459.78
392.554	423.04
392.617	324.31
392.68	425.34
392.742	381.71
392.805	427.63
392.867	455.18
392.93	390.9
392.992	349.57
393.055	370.23
393.118	384.01
393.18	328.9
393.243	452.89
393.305	367.94
393.368	395.49
393.43	411.56
393.493	425.34
393.555	400.08
393.618	455.18
393.68	363.34
393.742	416.15
393.805	354.16
393.867	443.7
393.93	406.97
393.992	475.85
394.054	464.37
394.117	342.68
394.179	413.86
394.241	395.49
394.304	448.3
394.366	324.31
394.428	386.3
394.49	418.45
394.553	395.49
394.615	429.93
394.677	404.67
394.739	340.38
394.802	379.42
394.864	400.08
394.926	406.97
394.988	418.45
395.05	487.33
395.112	404.67
395.174	328.9
395.237	377.12
395.299	347.27
395.361	427.63
395.423	423.04
395.485	393.19
395.547	395.49
395.609	342.68
395.671	397.78
395.733	455.18
395.795	356.46
395.857	409.26
395.919	464.37
395.981	377.12
396.043	361.05
396.105	402.38
396.167	388.6
396.229	416.15
396.291	436.82
396.352	432.22
396.414	388.6
396.476	381.71
396.538	436.82
396.6	393.19
396.662	487.33
396.724	390.9
396.785	347.27
396.847	402.38
396.909	406.97
396.971	372.53
397.032	333.5
397.094	370.23
397.156	406.97
397.218	432.22
397.279	347.27
397.341	432.22
397.403	367.94
397.464	381.71
397.526	372.53
397.588	411.56
397.649	381.71
397.711	381.71
397.772	393.19
397.834	448.3
397.896	361.05
397.957	305.94
398.019	434.52
398.08	420.74
398.142	439.11
398.203	423.04
398.265	423.04
398.326	372.53
398.388	388.6
398.449	393.19
398.511	386.3
398.572	381.71
398.633	361.05
398.695	446
398.756	411.56
398.818	418.45
398.879	351.86
398.94	395.49
399.002	338.09
399.063	429.93
399.124	402.38
399.186	436.82
399.247	395.49
399.308	452.89
399.369	370.23
399.431	406.97
399.492	379.42
399.553	400.08
399.614	386.3
399.676	390.9
399.737	363.34
399.798	404.67
399.859	379.42
399.92	377.12
399.981	416.15
400.042	351.86
400.104	418.45
400.165	349.57
400.226	367.94
400.287	340.38
400.348	390.9
400.409	388.6
400.47	377.12
400.531	446
400.592	322.02
400.653	425.34
400.714	423.04
400.775	317.42
400.836	310.54
400.897	432.22
400.958	372.53
401.019	322.02
401.08	448.3
401.141	439.11
401.201	367.94
401.262	388.6
401.323	372.53
401.384	347.27
401.445	397.78
401.506	372.53
401.567	363.34
401.627	388.6
401.688	361.05
401.749	409.26
401.81	393.19
401.87	393.19
401.931	400.08
401.992	354.16
402.053	388.6
402.113	397.78
402.174	361.05
402.235	420.74
402.295	393.19
402.356	331.2
402.417	367.94
402.477	418.45
402.538	439.11
402.598	397.78
402.659	418.45
402.719	367.94
402.78	365.64
402.841	384.01
402.901	372.53
402.962	384.01
403.022	413.86
403.083	338.09
403.143	416.15
403.204	379.42
403.264	356.46
403.324	390.9
403.385	406.97
403.445	349.57
403.506	395.49
403.566	397.78
403.627	361.05
403.687	400.08
403.747	395.49
403.808	427.63
403.868	395.49
403.928	344.98
403.989	448.3
404.049	340.38
404.109	342.68
404.169	354.16
404.23	388.6
404.29	374.82
404.35	377.12
404.41	436.82
404.47	388.6
404.531	354.16
404.591	374.82
404.651	441.41
404.711	420.74
404.771	367.94
404.831	388.6
404.892	420.74
404.952	400.08
405.012	333.5
405.072	409.26
405.132	367.94
405.192	443.7
405.252	305.94
405.312	326.61
405.372	374.82
405.432	358.75
405.492	409.26
405.552	363.34
405.612	379.42
405.672	361.05
405.732	349.57
405.792	416.15
405.852	351.86
405.912	390.9
405.971	372.53
406.031	354.16
406.091	367.94
406.151	344.98
406.211	411.56
406.271	287.58
406.33	393.19
406.39	400.08
406.45	388.6
406.51	429.93
406.57	377.12
406.629	361.05
406.689	351.86
406.749	363.34
406.808	301.35
406.868	344.98
406.928	427.63
406.988	349.57
407.047	370.23
407.107	347.27
407.166	347.27
407.226	406.97
407.286	367.94
407.345	395.49
407.405	370.23
407.464	384.01
407.524	390.9
407.584	390.9
407.643	409.26
407.703	427.63
407.762	384.01
407.822	374.82
407.881	434.52
407.941	374.82
408	388.6
408.059	379.42
408.119	425.34
408.178	395.49
408.238	420.74
408.297	340.38
408.356	349.57
408.416	372.53
408.475	386.3
408.535	365.64
408.594	377.12
408.653	386.3
408.712	439.11
408.772	386.3
408.831	397.78
408.89	377.12
408.95	326.61
409.009	347.27
409.068	390.9
409.127	436.82
409.186	331.2
409.246	328.9
409.305	333.5
409.364	384.01
409.423	370.23
409.482	400.08
409.541	406.97
409.6	344.98
409.66	393.19
409.719	326.61
409.778	384.01
409.837	395.49
409.896	370.23
409.955	411.56
410.014	365.64
410.073	374.82
410.132	418.45
410.191	386.3
410.25	342.68
410.309	379.42
410.368	370.23
410.427	292.17
410.486	358.75
410.545	354.16
410.603	386.3
410.662	395.49
410.721	379.42
410.78	358.75
410.839	397.78
410.898	377.12
410.957	381.71
411.015	423.04
411.074	390.9
411.133	367.94
411.192	441.41
411.25	347.27
411.309	423.04
411.368	361.05
411.427	326.61
411.485	367.94
411.544	406.97
411.603	331.2
411.661	308.24
411.72	351.86
411.779	381.71
411.837	404.67
411.896	395.49
411.955	374.82
412.013	358.75
412.072	374.82
412.13	363.34
412.189	390.9
412.247	388.6
412.306	335.79
412.364	406.97
412.423	406.97
412.481	374.82
412.54	372.53
412.598	347.27
412.657	436.82
412.715	344.98
412.774	365.64
412.832	356.46
412.891	406.97
412.949	397.78
413.007	411.56
413.066	379.42
413.124	315.13
413.182	400.08
413.241	418.45
413.299	384.01
413.357	450.59
413.416	400.08
413.474	406.97
413.532	324.31
413.59	393.19
413.649	377.12
413.707	420.74
413.765	344.98
413.823	377.12
413.881	370.23
413.94	400.08
413.998	429.93
414.056	374.82
414.114	363.34
414.172	358.75
414.23	333.5
414.288	429.93
414.347	347.27
414.405	374.82
414.463	400.08
414.521	386.3
414.579	333.5
414.637	351.86
414.695	356.46
414.753	351.86
414.811	427.63
414.869	381.71
414.927	400.08
414.985	370.23
415.043	363.34
415.101	402.38
415.158	333.5
415.216	384.01
415.274	386.3
415.332	342.68
415.39	374.82
415.448	358.75
415.506	361.05
415.563	354.16
415.621	404.67
415.679	416.15
415.737	427.63
415.795	367.94
415.852	425.34
415.91	432.22
415.968	386.3
416.026	393.19
416.083	367.94
416.141	335.79
416.199	367.94
416.256	413.86
416.314	411.56
416.372	344.98
416.429	411.56
416.487	418.45
416.544	349.57
416.602	356.46
416.66	384.01
416.717	338.09
416.775	429.93
416.832	363.34
416.89	310.54
416.947	338.09
417.005	338.09
417.062	374.82
417.12	384.01
417.177	333.5
417.235	439.11
417.292	370.23
417.35	402.38
417.407	416.15
417.464	358.75
417.522	393.19
417.579	409.26
417.637	434.52
417.694	386.3
417.751	335.79
417.809	333.5
417.866	328.9
417.923	354.16
417.981	349.57
418.038	356.46
418.095	390.9
418.152	292.17
418.21	384.01
418.267	390.9
418.324	338.09
418.381	393.19
418.438	351.86
418.496	384.01
418.553	379.42
418.61	397.78
418.667	361.05
418.724	372.53
418.781	393.19
418.838	404.67
418.895	427.63
418.952	450.59
419.01	384.01
419.067	384.01
419.124	349.57
419.181	429.93
419.238	289.87
419.295	384.01
419.352	393.19
419.409	367.94
419.466	347.27
419.523	356.46
419.579	347.27
419.636	420.74
419.693	358.75
419.75	402.38
419.807	379.42
419.864	448.3
419.921	333.5
419.978	413.86
420.034	416.15
420.091	400.08
420.148	347.27
420.205	386.3
420.262	377.12
420.318	390.9
420.375	420.74
420.432	393.19
420.489	354.16
420.545	340.38
420.602	374.82
420.659	443.7
420.715	393.19
420.772	439.11
420.829	367.94
420.885	411.56
420.942	395.49
420.999	429.93
421.055	370.23
421.112	377.12
421.168	342.68
421.225	390.9
421.282	388.6
421.338	340.38
421.395	395.49
421.451	427.63
421.508	397.78
421.564	363.34
421.621	395.49
421.677	367.94
421.734	393.19
421.79	395.49
421.846	365.64
421.903	340.38
421.959	358.75
422.016	328.9
422.072	400.08
422.128	439.11
422.185	349.57
422.241	358.75
422.297	370.23
422.354	420.74
422.41	370.23
422.466	432.22
422.523	446
422.579	427.63
422.635	471.26
422.691	377.12
422.748	400.08
422.804	406.97
422.86	361.05
422.916	418.45
422.972	381.71
423.029	347.27
423.085	377.12
423.141	395.49
423.197	439.11
423.253	402.38
423.309	379.42
423.365	367.94
423.421	367.94
423.477	342.68
423.533	370.23
423.589	395.49
423.645	400.08
423.701	317.42
423.757	381.71
423.813	367.94
423.869	326.61
423.925	361.05
423.981	292.17
424.037	402.38
424.093	308.24
424.149	393.19
424.205	367.94
424.261	370.23
424.317	333.5
424.373	361.05
424.428	347.27
424.484	386.3
424.54	409.26
424.596	358.75
424.652	377.12
424.708	420.74
424.763	363.34
424.819	356.46
424.875	349.57
424.931	386.3
424.986	361.05
425.042	379.42
425.098	338.09
425.153	432.22
425.209	358.75
425.265	344.98
425.32	395.49
425.376	393.19
425.432	367.94
425.487	367.94
425.543	324.31
425.598	372.53
425.654	388.6
425.709	372.53
425.765	331.2
425.82	340.38
425.876	374.82
425.932	299.06
425.987	333.5
426.042	349.57
426.098	386.3
426.153	351.86
426.209	388.6
426.264	354.16
426.32	340.38
426.375	372.53
426.43	446
426.486	308.24
426.541	374.82
426.597	413.86
426.652	333.5
426.707	282.98
426.763	397.78
426.818	425.34
426.873	344.98
426.928	340.38
426.984	379.42
427.039	390.9
427.094	326.61
427.149	315.13
427.205	354.16
427.26	423.04
427.315	333.5
427.37	429.93
427.425	418.45
427.48	388.6
427.536	390.9
427.591	367.94
427.646	365.64
427.701	351.86
427.756	354.16
427.811	406.97
427.866	367.94
427.921	356.46
427.976	354.16
428.031	374.82
428.086	381.71
428.141	409.26
428.196	347.27
428.251	338.09
428.306	351.86
428.361	282.98
428.416	319.72
428.471	333.5
428.526	347.27
428.581	418.45
428.636	361.05
428.691	393.19
428.745	363.34
428.8	342.68
428.855	305.94
428.91	413.86
428.965	388.6
429.02	425.34
429.074	308.24
429.129	372.53
429.184	377.12
429.239	377.12
429.293	372.53
429.348	356.46
429.403	374.82
429.457	344.98
429.512	331.2
429.567	420.74
429.621	374.82
429.676	319.72
429.731	356.46
429.785	354.16
429.84	429.93
429.895	365.64
429.949	347.27
430.004	475.85
430.058	351.86
430.113	379.42
430.167	347.27
430.222	374.82
430.276	379.42
430.331	358.75
430.385	372.53
430.44	370.23
430.494	384.01
430.549	331.2
430.603	340.38
430.657	411.56
430.712	404.67
430.766	411.56
430.821	363.34
430.875	377.12
430.929	338.09
430.984	344.98
431.038	347.27
431.092	347.27
431.147	317.42
431.201	356.46
431.255	305.94
431.309	434.52
431.364	365.64
431.418	351.86
431.472	347.27
431.526	367.94
431.581	280.69
431.635	393.19
431.689	404.67
431.743	361.05
431.797	344.98
431.851	365.64
431.906	420.74
431.96	386.3
432.014	363.34
432.068	319.72
432.122	310.54
432.176	384.01
432.23	377.12
432.284	347.27
432.338	328.9
432.392	338.09
432.446	333.5
432.5	386.3
432.554	374.82
432.608	347.27
432.662	351.86
432.716	367.94
432.77	340.38
432.824	301.35
432.878	365.64
432.931	367.94
432.985	344.98
433.039	349.57
433.093	361.05
433.147	324.31
433.201	418.45
433.254	356.46
433.308	432.22
433.362	363.34
433.416	413.86
433.47	420.74
433.523	420.74
433.577	441.41
433.631	351.86
433.684	423.04
433.738	365.64
433.792	388.6
433.846	418.45
433.899	395.49
433.953	312.83
434.006	351.86
434.06	358.75
434.114	402.38
434.167	402.38
434.221	402.38
