Data from FLMS155811_13-39-28-747.txt Node
Date: Tue Dec 31 13:39:28 MST 2019
User: ECEn Student
Spectrometer: FLMS15581
Trigger mode: 0
Integration Time (sec): 1.000000E-1
Scans to average: 1
Electric dark correction enabled: true
Nonlinearity correction enabled: false
Boxcar width: 0
XAxis mode: Wavelengths
Number of Pixels in Spectrum: 2048
>>>>>Begin Spectral Data<<<<<
298.026	-27.12
298.106	-27.12
298.185	-27.12
298.265	-22.53
298.344	-63.86
298.424	-66.15
298.503	-79.93
298.583	-68.45
298.662	-77.63
298.741	-125.85
298.821	-38.6
298.9	-73.04
298.98	-31.71
299.059	46.35
299.138	9.61
299.217	-20.23
299.297	39.46
299.376	46.35
299.455	172.63
299.535	126.71
299.614	140.49
299.693	124.42
299.772	140.49
299.852	191
299.931	140.49
300.01	211.66
300.089	151.97
300.168	211.66
300.247	259.88
300.327	294.32
300.406	282.84
300.485	280.54
300.564	356.31
300.643	303.5
300.722	314.98
300.801	259.88
300.88	317.28
300.959	383.86
301.038	402.23
301.117	252.99
301.196	335.65
301.275	386.16
301.354	402.23
301.433	383.86
301.512	376.98
301.591	404.53
301.67	443.56
301.749	393.05
301.828	337.94
301.907	393.05
301.985	393.05
302.064	358.61
302.143	342.54
302.222	333.35
302.301	360.9
302.38	351.72
302.458	388.46
302.537	376.98
302.616	321.87
302.695	275.95
302.773	367.79
302.852	409.12
302.931	383.86
303.01	406.82
303.088	328.76
303.167	319.58
303.246	308.1
303.324	370.09
303.403	275.95
303.481	333.35
303.56	370.09
303.639	349.42
303.717	354.02
303.796	342.54
303.874	275.95
303.953	331.06
304.032	356.31
304.11	390.75
304.189	335.65
304.267	383.86
304.346	420.6
304.424	356.31
304.502	326.46
304.581	312.69
304.659	351.72
304.738	337.94
304.816	347.13
304.895	344.83
304.973	333.35
305.051	331.06
305.13	370.09
305.208	360.9
305.286	280.54
305.365	344.83
305.443	360.9
305.521	390.75
305.6	326.46
305.678	312.69
305.756	321.87
305.834	312.69
305.913	331.06
305.991	308.1
306.069	365.5
306.147	383.86
306.225	319.58
306.304	305.8
306.382	358.61
306.46	374.68
306.538	324.17
306.616	333.35
306.694	248.4
306.772	351.72
306.85	360.9
306.929	381.57
307.007	395.34
307.085	351.72
307.163	363.2
307.241	363.2
307.319	308.1
307.397	402.23
307.475	340.24
307.553	413.71
307.631	409.12
307.709	404.53
307.786	351.72
307.864	333.35
307.942	374.68
308.02	331.06
308.098	333.35
308.176	344.83
308.254	390.75
308.332	356.31
308.409	324.17
308.487	344.83
308.565	390.75
308.643	312.69
308.721	374.68
308.798	326.46
308.876	271.36
308.954	331.06
309.032	324.17
309.109	374.68
309.187	275.95
309.265	349.42
309.342	310.39
309.42	372.38
309.498	420.6
309.575	351.72
309.653	388.46
309.731	383.86
309.808	354.02
309.886	420.6
309.963	331.06
310.041	422.9
310.119	379.27
310.196	390.75
310.274	374.68
310.351	356.31
310.429	337.94
310.506	344.83
310.584	340.24
310.661	360.9
310.738	370.09
310.816	383.86
310.893	455.04
310.971	393.05
311.048	436.67
311.126	358.61
311.203	388.46
311.28	331.06
311.358	416.01
311.435	354.02
311.512	351.72
311.59	340.24
311.667	351.72
311.744	340.24
311.821	349.42
311.899	367.79
311.976	370.09
312.053	395.34
312.13	393.05
312.208	374.68
312.285	406.82
312.362	367.79
312.439	360.9
312.516	434.38
312.593	397.64
312.671	358.61
312.748	356.31
312.825	367.79
312.902	349.42
312.979	376.98
313.056	328.76
313.133	370.09
313.21	337.94
313.287	383.86
313.364	443.56
313.441	383.86
313.518	363.2
313.595	393.05
313.672	429.78
313.749	399.94
313.826	379.27
313.903	367.79
313.98	383.86
314.057	351.72
314.134	303.5
314.211	445.86
314.287	393.05
314.364	328.76
314.441	303.5
314.518	383.86
314.595	363.2
314.672	379.27
314.748	351.72
314.825	328.76
314.902	416.01
314.979	436.67
315.055	354.02
315.132	363.2
315.209	393.05
315.286	340.24
315.362	390.75
315.439	262.18
315.516	413.71
315.592	416.01
315.669	393.05
315.746	390.75
315.822	390.75
315.899	374.68
315.975	413.71
316.052	416.01
316.128	404.53
316.205	354.02
316.282	438.97
316.358	328.76
316.435	459.63
316.511	383.86
316.588	354.02
316.664	360.9
316.741	402.23
316.817	370.09
316.893	374.68
316.97	395.34
317.046	363.2
317.123	374.68
317.199	409.12
317.275	342.54
317.352	310.39
317.428	386.16
317.504	416.01
317.581	372.38
317.657	340.24
317.733	324.17
317.81	360.9
317.886	404.53
317.962	386.16
318.038	351.72
318.115	413.71
318.191	317.28
318.267	337.94
318.343	374.68
318.419	372.38
318.496	360.9
318.572	376.98
318.648	351.72
318.724	425.19
318.8	344.83
318.876	432.08
318.952	452.74
319.028	344.83
319.105	349.42
319.181	381.57
319.257	301.21
319.333	409.12
319.409	399.94
319.485	425.19
319.561	372.38
319.637	347.13
319.713	354.02
319.789	390.75
319.865	386.16
319.94	331.06
320.016	379.27
320.092	381.57
320.168	340.24
320.244	379.27
320.32	397.64
320.396	409.12
320.472	376.98
320.547	292.02
320.623	381.57
320.699	354.02
320.775	344.83
320.851	425.19
320.926	402.23
321.002	331.06
321.078	363.2
321.154	386.16
321.229	455.04
321.305	429.78
321.381	388.46
321.456	418.3
321.532	342.54
321.608	358.61
321.683	425.19
321.759	422.9
321.835	409.12
321.91	326.46
321.986	351.72
322.061	404.53
322.137	411.42
322.212	422.9
322.288	418.3
322.364	358.61
322.439	393.05
322.515	351.72
322.59	420.6
322.666	404.53
322.741	434.38
322.816	416.01
322.892	395.34
322.967	374.68
323.043	374.68
323.118	372.38
323.193	404.53
323.269	328.76
323.344	406.82
323.42	411.42
323.495	294.32
323.57	425.19
323.646	420.6
323.721	395.34
323.796	374.68
323.871	402.23
323.947	331.06
324.022	425.19
324.097	351.72
324.172	370.09
324.248	388.46
324.323	443.56
324.398	409.12
324.473	358.61
324.548	363.2
324.623	422.9
324.699	450.45
324.774	432.08
324.849	406.82
324.924	308.1
324.999	425.19
325.074	388.46
325.149	425.19
325.224	363.2
325.299	381.57
325.374	372.38
325.449	395.34
325.524	344.83
325.599	399.94
325.674	358.61
325.749	367.79
325.824	393.05
325.899	390.75
325.974	344.83
326.049	379.27
326.124	365.5
326.199	388.46
326.273	386.16
326.348	464.22
326.423	422.9
326.498	411.42
326.573	413.71
326.648	411.42
326.722	354.02
326.797	416.01
326.872	388.46
326.947	379.27
327.021	416.01
327.096	349.42
327.171	381.57
327.245	372.38
327.32	390.75
327.395	358.61
327.47	402.23
327.544	367.79
327.619	441.26
327.693	376.98
327.768	347.13
327.843	379.27
327.917	356.31
327.992	374.68
328.066	457.34
328.141	388.46
328.215	413.71
328.29	370.09
328.364	429.78
328.439	365.5
328.513	367.79
328.588	388.46
328.662	363.2
328.737	393.05
328.811	324.17
328.886	425.19
328.96	404.53
329.035	376.98
329.109	365.5
329.183	358.61
329.258	372.38
329.332	452.74
329.406	416.01
329.481	356.31
329.555	416.01
329.629	363.2
329.704	386.16
329.778	386.16
329.852	379.27
329.926	422.9
330.001	413.71
330.075	425.19
330.149	374.68
330.223	367.79
330.297	374.68
330.372	342.54
330.446	436.67
330.52	416.01
330.594	416.01
330.668	438.97
330.742	386.16
330.816	363.2
330.89	413.71
330.964	422.9
331.038	365.5
331.113	347.13
331.187	289.73
331.261	342.54
331.335	351.72
331.409	429.78
331.483	379.27
331.557	399.94
331.63	390.75
331.704	418.3
331.778	416.01
331.852	399.94
331.926	367.79
332	358.61
332.074	376.98
332.148	404.53
332.222	372.38
332.295	402.23
332.369	411.42
332.443	416.01
332.517	425.19
332.591	418.3
332.665	365.5
332.738	443.56
332.812	395.34
332.886	432.08
332.959	367.79
333.033	393.05
333.107	335.65
333.181	388.46
333.254	402.23
333.328	416.01
333.402	425.19
333.475	427.49
333.549	432.08
333.622	411.42
333.696	404.53
333.77	390.75
333.843	404.53
333.917	370.09
333.99	434.38
334.064	443.56
334.137	404.53
334.211	420.6
334.284	386.16
334.358	482.59
334.431	404.53
334.505	397.64
334.578	420.6
334.652	416.01
334.725	459.63
334.799	411.42
334.872	390.75
334.945	425.19
335.019	445.86
335.092	393.05
335.165	429.78
335.239	459.63
335.312	404.53
335.385	404.53
335.459	416.01
335.532	411.42
335.605	379.27
335.678	393.05
335.752	438.97
335.825	413.71
335.898	328.76
335.971	468.82
336.045	406.82
336.118	420.6
336.191	356.31
336.264	438.97
336.337	429.78
336.41	418.3
336.483	370.09
336.557	356.31
336.63	411.42
336.703	393.05
336.776	450.45
336.849	459.63
336.922	425.19
336.995	379.27
337.068	402.23
337.141	471.11
337.214	411.42
337.287	367.79
337.36	372.38
337.433	411.42
337.506	372.38
337.579	406.82
337.652	383.86
337.725	335.65
337.797	406.82
337.87	478
337.943	427.49
338.016	365.5
338.089	349.42
338.162	372.38
338.235	402.23
338.307	413.71
338.38	452.74
338.453	406.82
338.526	404.53
338.598	402.23
338.671	388.46
338.744	399.94
338.817	459.63
338.889	406.82
338.962	416.01
339.035	436.67
339.107	404.53
339.18	388.46
339.253	409.12
339.325	409.12
339.398	409.12
339.47	480.3
339.543	528.51
339.616	413.71
339.688	363.2
339.761	427.49
339.833	390.75
339.906	436.67
339.978	425.19
340.051	468.82
340.123	445.86
340.196	340.24
340.268	436.67
340.341	386.16
340.413	452.74
340.485	436.67
340.558	425.19
340.63	358.61
340.703	429.78
340.775	390.75
340.847	372.38
340.92	432.08
340.992	425.19
341.064	406.82
341.137	418.3
341.209	422.9
341.281	416.01
341.354	482.59
341.426	432.08
341.498	464.22
341.57	333.35
341.643	386.16
341.715	427.49
341.787	365.5
341.859	468.82
341.931	413.71
342.003	466.52
342.076	482.59
342.148	402.23
342.22	475.7
342.292	402.23
342.364	379.27
342.436	432.08
342.508	452.74
342.58	379.27
342.652	406.82
342.724	395.34
342.796	457.34
342.868	445.86
342.94	455.04
343.012	427.49
343.084	434.38
343.156	397.64
343.228	418.3
343.3	427.49
343.372	404.53
343.444	436.67
343.516	404.53
343.588	473.41
343.66	432.08
343.731	406.82
343.803	409.12
343.875	438.97
343.947	432.08
344.019	452.74
344.09	422.9
344.162	409.12
344.234	438.97
344.306	383.86
344.377	376.98
344.449	370.09
344.521	450.45
344.593	438.97
344.664	416.01
344.736	434.38
344.808	390.75
344.879	425.19
344.951	411.42
345.023	381.57
345.094	459.63
345.166	450.45
345.237	441.26
345.309	402.23
345.38	427.49
345.452	443.56
345.524	484.89
345.595	452.74
345.667	416.01
345.738	367.79
345.81	413.71
345.881	425.19
345.953	404.53
346.024	395.34
346.095	443.56
346.167	480.3
346.238	464.22
346.31	383.86
346.381	466.52
346.452	464.22
346.524	496.37
346.595	363.2
346.666	448.15
346.738	388.46
346.809	404.53
346.88	416.01
346.952	432.08
347.023	457.34
347.094	491.78
347.165	461.93
347.237	464.22
347.308	443.56
347.379	438.97
347.45	473.41
347.521	436.67
347.593	436.67
347.664	418.3
347.735	383.86
347.806	432.08
347.877	404.53
347.948	450.45
348.019	390.75
348.09	489.48
348.161	438.97
348.233	420.6
348.304	402.23
348.375	459.63
348.446	432.08
348.517	429.78
348.588	498.66
348.659	416.01
348.73	484.89
348.801	448.15
348.871	416.01
348.942	413.71
349.013	473.41
349.084	553.77
349.155	438.97
349.226	491.78
349.297	494.07
349.368	422.9
349.439	487.18
349.509	489.48
349.58	468.82
349.651	466.52
349.722	489.48
349.793	457.34
349.863	496.37
349.934	452.74
350.005	443.56
350.076	418.3
350.146	448.15
350.217	356.31
350.288	455.04
350.358	505.55
350.429	491.78
350.5	471.11
350.57	484.89
350.641	455.04
350.711	471.11
350.782	473.41
350.853	478
350.923	480.3
350.994	496.37
351.064	514.74
351.135	473.41
351.205	553.77
351.276	436.67
351.346	480.3
351.417	489.48
351.487	546.88
351.558	487.18
351.628	478
351.699	588.21
351.769	533.1
351.84	565.25
351.91	608.87
351.98	558.36
352.051	581.32
352.121	562.95
352.191	473.41
352.262	528.51
352.332	549.18
352.402	551.47
352.473	528.51
352.543	597.39
352.613	583.62
352.683	645.61
352.754	604.28
352.824	634.13
352.894	645.61
352.964	657.09
353.035	703.01
353.105	705.31
353.175	769.59
353.245	716.79
353.315	822.4
353.385	744.34
353.455	833.88
353.526	792.55
353.596	902.76
353.666	822.4
353.736	824.7
353.806	911.95
353.876	1010.67
353.946	955.57
354.016	987.71
354.086	1031.34
354.156	1065.78
354.226	1077.26
354.296	1114
354.366	1102.52
354.436	1153.03
354.506	1192.06
354.576	1194.36
354.645	1258.64
354.715	1339
354.785	1368.85
354.855	1394.11
354.925	1508.91
354.995	1453.8
355.065	1545.64
355.134	1531.87
355.204	1623.71
355.274	1699.48
355.344	1704.07
355.414	1809.69
355.483	1848.72
355.553	1894.64
355.623	1991.07
355.693	2025.51
355.762	2225.26
355.832	2245.93
355.902	2245.93
355.971	2390.58
356.041	2425.02
356.111	2484.71
356.18	2581.15
356.25	2705.13
356.319	2787.79
356.389	2776.31
356.459	2994.43
356.528	2992.13
356.598	3150.56
356.667	3242.4
356.737	3435.26
356.806	3625.83
356.876	3699.3
356.945	3804.92
357.015	3864.61
357.084	4025.34
357.154	4006.97
357.223	4236.57
357.292	4330.7
357.362	4378.92
357.431	4615.41
357.501	4734.8
357.57	4932.26
357.639	4946.04
357.709	5288.14
357.778	5474.12
357.847	5570.55
357.917	5627.95
357.986	5942.5
358.055	6087.15
358.124	6234.1
358.194	6461.4
358.263	6734.63
358.332	6780.55
358.401	6909.12
358.471	7033.11
358.54	7563.49
358.609	7595.63
358.678	7857.38
358.747	8210.96
358.816	8112.23
358.886	8578.32
358.955	8626.54
359.024	9097.22
359.093	8947.98
359.162	9308.45
359.231	9751.58
359.3	9997.26
359.369	10144.2
359.438	10465.64
359.507	10686.06
359.576	11009.8
359.645	11310.57
359.714	11471.29
359.783	11857.02
359.852	12160.1
359.921	12456.28
359.99	12867.27
360.059	13172.64
360.128	13360.91
360.197	13691.54
360.266	14189.77
360.334	14490.55
360.403	14768.36
360.472	14940.56
360.541	15560.49
360.61	15794.68
360.679	16074.79
360.747	16235.51
360.816	16708.49
360.885	17160.81
360.954	17640.67
361.022	17730.22
361.091	18265.19
361.16	18685.36
361.228	19002.21
361.297	19720.86
361.366	19810.4
361.434	20469.36
361.503	21119.13
361.572	21452.05
361.64	21876.81
361.709	22365.86
361.778	23031.7
361.846	23047.77
361.915	23669.99
361.983	24175.11
362.052	24916.73
362.12	25405.78
362.189	25513.69
362.257	26634.14
362.326	26661.69
362.394	27288.5
362.463	28043.89
362.531	28638.56
362.6	28836.01
362.668	29230.93
362.737	29811.82
362.805	30518.99
362.873	31345.55
362.942	32036.65
363.01	32385.64
363.079	32955.06
363.147	33607.12
363.215	33956.12
363.284	34757.42
363.352	35358.98
363.42	36061.56
363.488	36791.69
363.557	37278.44
363.625	37852.44
363.693	38240.47
363.761	38752.48
363.83	39847.68
363.898	40573.21
363.966	40557.14
364.034	41638.56
364.102	41943.93
364.171	42648.81
364.239	43291.69
364.307	43755.48
364.375	43755.48
364.443	44963.19
364.511	45367.28
364.579	45927.51
364.647	46880.35
364.715	47256.9
364.783	48329.14
364.851	48085.76
364.919	48779.15
364.987	48942.17
365.055	49901.9
365.123	50260.08
365.191	50753.72
365.259	50852.45
365.327	51575.69
365.395	51803
365.463	52110.66
365.531	52464.25
365.599	52774.21
365.667	53196.68
365.735	53502.04
365.802	53963.54
365.87	54204.62
365.938	54071.45
366.006	55031.19
366.074	54774.03
366.142	55267.68
366.209	55488.09
366.277	55848.57
366.345	55883.01
366.413	56401.9
366.48	56195.26
366.548	56617.73
366.616	56934.58
366.683	57141.22
366.751	57088.41
366.819	57444.29
366.886	57605.01
366.954	57671.6
367.022	57683.08
367.089	57944.82
367.157	58224.94
367.224	58158.35
367.292	58438.47
367.36	58436.17
367.427	58323.66
367.495	58789.75
367.562	58736.95
367.63	58785.16
367.697	58771.39
367.765	59021.65
367.832	59168.6
367.9	59044.61
367.967	59111.2
368.034	59095.12
368.102	59269.62
368.169	59260.44
368.237	59313.24
368.304	59457.89
368.371	59246.66
368.439	59366.05
368.506	59389.01
368.573	59499.22
368.641	59565.81
368.708	59510.7
368.775	59648.46
368.843	59572.69
368.91	59480.85
368.977	59382.12
369.044	59565.81
369.112	59464.78
369.179	59600.25
369.246	59572.69
369.313	59584.17
369.38	59418.86
369.448	59377.53
369.515	59389.01
369.582	59375.24
369.649	59340.8
369.716	59405.09
369.783	59274.21
369.85	59301.76
369.917	59216.81
369.984	59255.84
370.052	59200.74
370.119	59010.17
370.186	59189.26
370.253	58941.29
370.32	58739.24
370.387	58674.95
370.454	58681.84
370.521	58436.17
370.587	58482.09
370.654	58224.94
370.721	57976.97
370.788	57689.97
370.855	57205.51
370.922	57301.94
370.989	57021.83
371.056	56631.51
371.123	55788.87
371.189	55097.77
371.256	54787.81
371.323	54266.62
371.39	53359.69
371.457	52574.46
371.523	51867.29
371.59	50218.75
371.657	49578.16
371.724	48494.45
371.79	46848.21
371.857	45364.99
371.924	44200.91
371.991	41801.58
372.057	40084.16
372.124	38525.17
372.191	36621.78
372.257	34419.91
372.324	33003.27
372.39	31281.26
372.457	29093.17
372.524	27745.41
372.59	26002.74
372.657	24384.05
372.723	22393.41
372.79	21130.61
372.856	19514.22
372.923	18611.88
372.989	16970.24
373.056	16040.35
373.122	14816.58
373.189	13815.52
373.255	12761.65
373.322	11721.56
373.388	11002.91
373.454	10203.9
373.521	9372.74
373.587	8748.23
373.654	7875.74
373.72	7620.89
373.786	6978
373.853	6429.26
373.919	6213.43
373.985	5639.43
374.052	5159.56
374.118	4943.74
374.184	4525.87
374.25	4169.98
374.317	3878.39
374.383	3657.97
374.449	3651.09
374.515	3322.76
374.581	3180.4
374.648	2994.43
374.714	2815.34
374.78	2530.63
374.846	2431.9
374.912	2415.83
374.978	2096.69
375.044	2140.31
375.11	1965.81
375.177	1825.76
375.243	1834.94
375.309	1717.85
375.375	1614.53
375.441	1508.91
375.507	1481.36
375.573	1462.99
375.639	1343.6
375.705	1251.76
375.771	1189.76
375.837	1157.62
375.903	1120.88
375.968	1166.8
376.034	1015.27
376.1	1019.86
376.166	1091.04
376.232	994.6
376.298	939.5
376.364	937.2
376.43	875.21
376.495	930.31
376.561	813.22
376.627	762.71
376.693	820.11
376.759	785.67
376.824	748.93
376.89	735.15
376.956	778.78
377.022	744.34
377.087	684.64
377.153	703.01
377.219	700.71
377.284	705.31
377.35	622.65
377.416	689.23
377.481	652.5
377.547	629.54
377.613	581.32
377.678	581.32
377.744	659.39
377.809	746.63
377.875	638.72
377.94	647.91
378.006	597.39
378.071	595.1
378.137	675.46
378.202	556.06
378.268	560.66
378.333	521.62
378.399	567.54
378.464	569.84
378.53	579.02
378.595	585.91
378.661	539.99
378.726	576.73
378.791	558.36
378.857	466.52
378.922	535.4
378.987	521.62
379.053	503.26
379.118	558.36
379.183	539.99
379.249	491.78
379.314	535.4
379.379	475.7
379.444	503.26
379.51	484.89
379.575	510.14
379.64	487.18
379.705	498.66
379.771	521.62
379.836	567.54
379.901	491.78
379.966	443.56
380.031	464.22
380.096	526.22
380.161	471.11
380.227	473.41
380.292	482.59
380.357	542.29
380.422	482.59
380.487	519.33
380.552	560.66
380.617	473.41
380.682	475.7
380.747	468.82
380.812	500.96
380.877	411.42
380.942	459.63
381.007	503.26
381.072	434.38
381.137	459.63
381.202	494.07
381.266	471.11
381.331	471.11
381.396	459.63
381.461	420.6
381.526	425.19
381.591	537.7
381.656	436.67
381.72	461.93
381.785	475.7
381.85	418.3
381.915	390.75
381.979	455.04
382.044	427.49
382.109	429.78
382.174	445.86
382.238	427.49
382.303	436.67
382.368	482.59
382.432	484.89
382.497	386.16
382.562	473.41
382.626	455.04
382.691	418.3
382.756	484.89
382.82	397.64
382.885	487.18
382.949	409.12
383.014	468.82
383.078	393.05
383.143	455.04
383.208	521.62
383.272	455.04
383.337	443.56
383.401	393.05
383.465	464.22
383.53	402.23
383.594	381.57
383.659	455.04
383.723	466.52
383.788	436.67
383.852	438.97
383.916	376.98
383.981	464.22
384.045	429.78
384.109	386.16
384.174	438.97
384.238	425.19
384.302	459.63
384.367	475.7
384.431	448.15
384.495	452.74
384.56	436.67
384.624	461.93
384.688	448.15
384.752	425.19
384.816	409.12
384.881	436.67
384.945	459.63
385.009	402.23
385.073	418.3
385.137	445.86
385.201	445.86
385.265	383.86
385.33	406.82
385.394	390.75
385.458	455.04
385.522	390.75
385.586	438.97
385.65	376.98
385.714	409.12
385.778	427.49
385.842	432.08
385.906	393.05
385.97	466.52
386.034	432.08
386.098	386.16
386.162	416.01
386.226	416.01
386.29	521.62
386.354	402.23
386.417	411.42
386.481	427.49
386.545	422.9
386.609	457.34
386.673	475.7
386.737	388.46
386.8	445.86
386.864	475.7
386.928	489.48
386.992	402.23
387.056	386.16
387.119	381.57
387.183	438.97
387.247	464.22
387.31	402.23
387.374	374.68
387.438	473.41
387.502	379.27
387.565	432.08
387.629	420.6
387.692	397.64
387.756	367.79
387.82	422.9
387.883	374.68
387.947	379.27
388.01	363.2
388.074	420.6
388.138	420.6
388.201	374.68
388.265	482.59
388.328	381.57
388.392	383.86
388.455	360.9
388.519	425.19
388.582	427.49
388.645	413.71
388.709	438.97
388.772	363.2
388.836	418.3
388.899	441.26
388.962	452.74
389.026	475.7
389.089	326.46
389.153	436.67
389.216	379.27
389.279	404.53
389.343	420.6
389.406	386.16
389.469	399.94
389.532	395.34
389.596	347.13
389.659	448.15
389.722	356.31
389.785	381.57
389.848	406.82
389.912	388.46
389.975	393.05
390.038	420.6
390.101	386.16
390.164	418.3
390.227	395.34
390.291	360.9
390.354	416.01
390.417	429.78
390.48	404.53
390.543	443.56
390.606	413.71
390.669	432.08
390.732	448.15
390.795	429.78
390.858	478
390.921	333.35
390.984	379.27
391.047	365.5
391.11	397.64
391.173	466.52
391.236	386.16
391.299	395.34
391.362	337.94
391.424	312.69
391.487	383.86
391.55	383.86
391.613	388.46
391.676	374.68
391.739	388.46
391.802	434.38
391.864	310.39
391.927	354.02
391.99	370.09
392.053	418.3
392.115	376.98
392.178	333.35
392.241	381.57
392.304	358.61
392.366	331.06
392.429	434.38
392.492	372.38
392.554	432.08
392.617	416.01
392.68	365.5
392.742	436.67
392.805	381.57
392.867	351.72
392.93	445.86
392.992	310.39
393.055	409.12
393.118	441.26
393.18	363.2
393.243	381.57
393.305	434.38
393.368	418.3
393.43	466.52
393.493	468.82
393.555	317.28
393.618	399.94
393.68	372.38
393.742	383.86
393.805	379.27
393.867	404.53
393.93	390.75
393.992	427.49
394.054	356.31
394.117	422.9
394.179	360.9
394.241	395.34
394.304	344.83
394.366	438.97
394.428	416.01
394.49	413.71
394.553	365.5
394.615	409.12
394.677	374.68
394.739	455.04
394.802	429.78
394.864	429.78
394.926	390.75
394.988	374.68
395.05	404.53
395.112	402.23
395.174	397.64
395.237	441.26
395.299	402.23
395.361	351.72
395.423	314.98
395.485	358.61
395.547	443.56
395.609	416.01
395.671	358.61
395.733	413.71
395.795	383.86
395.857	349.42
395.919	354.02
395.981	397.64
396.043	416.01
396.105	383.86
396.167	310.39
396.229	381.57
396.291	372.38
396.352	354.02
396.414	360.9
396.476	402.23
396.538	376.98
396.6	372.38
396.662	399.94
396.724	390.75
396.785	347.13
396.847	342.54
396.909	363.2
396.971	335.65
397.032	326.46
397.094	310.39
397.156	432.08
397.218	418.3
397.279	321.87
397.341	367.79
397.403	402.23
397.464	383.86
397.526	404.53
397.588	351.72
397.649	365.5
397.711	337.94
397.772	342.54
397.834	402.23
397.896	367.79
397.957	480.3
398.019	374.68
398.08	404.53
398.142	393.05
398.203	388.46
398.265	427.49
398.326	438.97
398.388	434.38
398.449	420.6
398.511	386.16
398.572	418.3
398.633	324.17
398.695	399.94
398.756	365.5
398.818	388.46
398.879	372.38
398.94	367.79
399.002	436.67
399.063	370.09
399.124	436.67
399.186	390.75
399.247	416.01
399.308	363.2
399.369	399.94
399.431	427.49
399.492	376.98
399.553	386.16
399.614	376.98
399.676	390.75
399.737	354.02
399.798	365.5
399.859	379.27
399.92	406.82
399.981	367.79
400.042	386.16
400.104	365.5
400.165	335.65
400.226	390.75
400.287	342.54
400.348	351.72
400.409	406.82
400.47	340.24
400.531	372.38
400.592	363.2
400.653	298.91
400.714	354.02
400.775	425.19
400.836	367.79
400.897	413.71
400.958	340.24
401.019	422.9
401.08	395.34
401.141	425.19
401.201	333.35
401.262	406.82
401.323	434.38
401.384	429.78
401.445	432.08
401.506	340.24
401.567	367.79
401.627	395.34
401.688	388.46
401.749	406.82
401.81	310.39
401.87	397.64
401.931	388.46
401.992	349.42
402.053	445.86
402.113	379.27
402.174	367.79
402.235	395.34
402.295	411.42
402.356	399.94
402.417	363.2
402.477	347.13
402.538	402.23
402.598	365.5
402.659	381.57
402.719	358.61
402.78	402.23
402.841	337.94
402.901	379.27
402.962	335.65
403.022	356.31
403.083	374.68
403.143	333.35
403.204	390.75
403.264	354.02
403.324	471.11
403.385	425.19
403.445	381.57
403.506	381.57
403.566	358.61
403.627	376.98
403.687	395.34
403.747	404.53
403.808	354.02
403.868	328.76
403.928	402.23
403.989	402.23
404.049	360.9
404.109	363.2
404.169	402.23
404.23	365.5
404.29	328.76
404.35	390.75
404.41	340.24
404.47	324.17
404.531	402.23
404.591	347.13
404.651	418.3
404.711	397.64
404.771	418.3
404.831	388.46
404.892	337.94
404.952	386.16
405.012	294.32
405.072	372.38
405.132	422.9
405.192	416.01
405.252	360.9
405.312	383.86
405.372	358.61
405.432	438.97
405.492	445.86
405.552	450.45
405.612	393.05
405.672	365.5
405.732	388.46
405.792	404.53
405.852	383.86
405.912	370.09
405.971	342.54
406.031	395.34
406.091	365.5
406.151	406.82
406.211	358.61
406.271	413.71
406.33	301.21
406.39	374.68
406.45	344.83
406.51	393.05
406.57	370.09
406.629	379.27
406.689	411.42
406.749	386.16
406.808	365.5
406.868	427.49
406.928	308.1
406.988	365.5
407.047	402.23
407.107	397.64
407.166	381.57
407.226	363.2
407.286	365.5
407.345	397.64
407.405	386.16
407.464	390.75
407.524	317.28
407.584	388.46
407.643	395.34
407.703	388.46
407.762	413.71
407.822	363.2
407.881	275.95
407.941	434.38
408	335.65
408.059	347.13
408.119	321.87
408.178	383.86
408.238	395.34
408.297	381.57
408.356	383.86
408.416	360.9
408.475	347.13
408.535	356.31
408.594	404.53
408.653	370.09
408.712	321.87
408.772	356.31
408.831	370.09
408.89	365.5
408.95	358.61
409.009	370.09
409.068	383.86
409.127	367.79
409.186	429.78
409.246	393.05
409.305	436.67
409.364	351.72
409.423	429.78
409.482	383.86
409.541	443.56
409.6	367.79
409.66	409.12
409.719	448.15
409.778	365.5
409.837	372.38
409.896	347.13
409.955	386.16
410.014	397.64
410.073	370.09
410.132	335.65
410.191	351.72
410.25	388.46
410.309	381.57
410.368	363.2
410.427	289.73
410.486	386.16
410.545	372.38
410.603	395.34
410.662	358.61
410.721	363.2
410.78	356.31
410.839	344.83
410.898	342.54
410.957	337.94
411.015	404.53
411.074	370.09
411.133	344.83
411.192	372.38
411.25	379.27
411.309	360.9
411.368	413.71
411.427	386.16
411.485	326.46
411.544	436.67
411.603	363.2
411.661	351.72
411.72	314.98
411.779	349.42
411.837	427.49
411.896	395.34
411.955	335.65
412.013	354.02
412.072	333.35
412.13	331.06
412.189	370.09
412.247	381.57
412.306	358.61
412.364	372.38
412.423	356.31
412.481	395.34
412.54	335.65
412.598	305.8
412.657	376.98
412.715	420.6
412.774	434.38
412.832	376.98
412.891	321.87
412.949	406.82
413.007	324.17
413.066	349.42
413.124	406.82
413.182	383.86
413.241	395.34
413.299	390.75
413.357	402.23
413.416	367.79
413.474	342.54
413.532	406.82
413.59	464.22
413.649	434.38
413.707	402.23
413.765	372.38
413.823	372.38
413.881	395.34
413.94	317.28
413.998	393.05
414.056	409.12
414.114	427.49
414.172	388.46
414.23	326.46
414.288	411.42
414.347	354.02
414.405	372.38
414.463	349.42
414.521	427.49
414.579	370.09
414.637	372.38
414.695	354.02
414.753	351.72
414.811	386.16
414.869	340.24
414.927	427.49
414.985	294.32
415.043	399.94
415.101	416.01
415.158	388.46
415.216	427.49
415.274	347.13
415.332	386.16
415.39	344.83
415.448	395.34
415.506	390.75
415.563	475.7
415.621	351.72
415.679	409.12
415.737	333.35
415.795	317.28
415.852	370.09
415.91	358.61
415.968	354.02
416.026	344.83
416.083	404.53
416.141	404.53
416.199	360.9
416.256	372.38
416.314	413.71
416.372	379.27
416.429	347.13
416.487	390.75
416.544	386.16
416.602	365.5
416.66	381.57
416.717	370.09
416.775	294.32
416.832	402.23
416.89	383.86
416.947	381.57
417.005	395.34
417.062	305.8
417.12	452.74
417.177	383.86
417.235	381.57
417.292	397.64
417.35	390.75
417.407	432.08
417.464	406.82
417.522	367.79
417.579	409.12
417.637	308.1
417.694	383.86
417.751	395.34
417.809	347.13
417.866	354.02
417.923	390.75
417.981	356.31
418.038	370.09
418.095	365.5
418.152	395.34
418.21	331.06
418.267	342.54
418.324	358.61
418.381	416.01
418.438	397.64
418.496	425.19
418.553	409.12
418.61	356.31
418.667	349.42
418.724	363.2
418.781	386.16
418.838	376.98
418.895	388.46
418.952	370.09
419.01	404.53
419.067	328.76
419.124	356.31
419.181	386.16
419.238	289.73
419.295	360.9
419.352	356.31
419.409	314.98
419.466	347.13
419.523	404.53
419.579	335.65
419.636	328.76
419.693	363.2
419.75	411.42
419.807	406.82
419.864	413.71
419.921	393.05
419.978	390.75
420.034	342.54
420.091	390.75
420.148	397.64
420.205	328.76
420.262	372.38
420.318	358.61
420.375	349.42
420.432	436.67
420.489	374.68
420.545	331.06
420.602	351.72
420.659	397.64
420.715	294.32
420.772	370.09
420.829	370.09
420.885	372.38
420.942	386.16
420.999	383.86
421.055	349.42
421.112	321.87
421.168	335.65
421.225	287.43
421.282	374.68
421.338	310.39
421.395	296.62
421.451	303.5
421.508	381.57
421.564	319.58
421.621	397.64
421.677	354.02
421.734	388.46
421.79	436.67
421.846	360.9
421.903	340.24
421.959	372.38
422.016	418.3
422.072	354.02
422.128	321.87
422.185	337.94
422.241	404.53
422.297	367.79
422.354	354.02
422.41	383.86
422.466	347.13
422.523	305.8
422.579	393.05
422.635	409.12
422.691	333.35
422.748	356.31
422.804	367.79
422.86	420.6
422.916	409.12
422.972	376.98
423.029	397.64
423.085	370.09
423.141	411.42
423.197	381.57
423.253	406.82
423.309	321.87
423.365	331.06
423.421	337.94
423.477	386.16
423.533	354.02
423.589	337.94
423.645	314.98
423.701	333.35
423.757	406.82
423.813	372.38
423.869	328.76
423.925	289.73
423.981	317.28
424.037	358.61
424.093	331.06
424.149	347.13
424.205	344.83
424.261	358.61
424.317	324.17
424.373	360.9
424.428	360.9
424.484	317.28
424.54	351.72
424.596	349.42
424.652	358.61
424.708	372.38
424.763	349.42
424.819	381.57
424.875	337.94
424.931	388.46
424.986	331.06
425.042	406.82
425.098	367.79
425.153	416.01
425.209	335.65
425.265	388.46
425.32	404.53
425.376	374.68
425.432	349.42
425.487	390.75
425.543	376.98
425.598	314.98
425.654	402.23
425.709	379.27
425.765	409.12
425.82	365.5
425.876	376.98
425.932	333.35
425.987	372.38
426.042	340.24
426.098	365.5
426.153	356.31
426.209	422.9
426.264	321.87
426.32	337.94
426.375	310.39
426.43	370.09
426.486	402.23
426.541	337.94
426.597	347.13
426.652	383.86
426.707	395.34
426.763	416.01
426.818	374.68
426.873	365.5
426.928	365.5
426.984	333.35
427.039	354.02
427.094	337.94
427.149	324.17
427.205	356.31
427.26	399.94
427.315	340.24
427.37	337.94
427.425	335.65
427.48	397.64
427.536	372.38
427.591	370.09
427.646	365.5
427.701	326.46
427.756	372.38
427.811	404.53
427.866	234.62
427.921	360.9
427.976	340.24
428.031	390.75
428.086	342.54
428.141	367.79
428.196	321.87
428.251	383.86
428.306	363.2
428.361	409.12
428.416	310.39
428.471	365.5
428.526	356.31
428.581	354.02
428.636	436.67
428.691	365.5
428.745	475.7
428.8	425.19
428.855	404.53
428.91	335.65
428.965	370.09
429.02	333.35
429.074	326.46
429.129	370.09
429.184	335.65
429.239	308.1
429.293	418.3
429.348	418.3
429.403	358.61
429.457	358.61
429.512	312.69
429.567	331.06
429.621	418.3
429.676	457.34
429.731	393.05
429.785	365.5
429.84	328.76
429.895	381.57
429.949	319.58
430.004	333.35
430.058	379.27
430.113	383.86
430.167	335.65
430.222	310.39
430.276	372.38
430.331	381.57
430.385	351.72
430.44	390.75
430.494	324.17
430.549	326.46
430.603	404.53
430.657	349.42
430.712	386.16
430.766	372.38
430.821	340.24
430.875	324.17
430.929	342.54
430.984	301.21
431.038	363.2
431.092	374.68
431.147	372.38
431.201	331.06
431.255	370.09
431.309	335.65
431.364	434.38
431.418	331.06
431.472	328.76
431.526	363.2
431.581	376.98
431.635	372.38
431.689	360.9
431.743	379.27
431.797	376.98
431.851	301.21
431.906	395.34
431.96	349.42
432.014	335.65
432.068	365.5
432.122	397.64
432.176	360.9
432.23	406.82
432.284	349.42
432.338	374.68
432.392	358.61
432.446	367.79
432.5	409.12
432.554	365.5
432.608	328.76
432.662	411.42
432.716	406.82
432.77	418.3
432.824	420.6
432.878	360.9
432.931	374.68
432.985	395.34
433.039	395.34
433.093	420.6
433.147	381.57
433.201	393.05
433.254	370.09
433.308	337.94
433.362	351.72
433.416	422.9
433.47	328.76
433.523	358.61
433.577	365.5
433.631	344.83
433.684	393.05
433.738	351.72
433.792	406.82
433.846	402.23
433.899	422.9
433.953	374.68
434.006	390.75
434.06	317.28
434.114	356.31
434.167	356.31
434.221	356.31
