Data from FLMS155811_12-31-55-429.txt Node
Date: Mon Mar 23 12:31:55 MDT 2020
User: ECEn Student
Spectrometer: FLMS15581
Trigger mode: 0
Integration Time (sec): 1.000000E-1
Scans to average: 1
Electric dark correction enabled: true
Nonlinearity correction enabled: false
Boxcar width: 0
XAxis mode: Wavelengths
Number of Pixels in Spectrum: 2048
>>>>>Begin Spectral Data<<<<<
298.026	-48.93
298.106	-48.93
298.185	-48.93
298.265	-44.34
298.344	-74.19
298.424	-97.15
298.503	-106.33
298.583	-99.45
298.662	-122.41
298.741	-51.23
298.821	-48.93
298.9	-25.97
298.98	-39.75
299.059	13.06
299.138	52.09
299.217	40.61
299.297	125.56
299.376	68.16
299.455	47.5
299.535	127.86
299.614	116.38
299.693	49.79
299.772	185.26
299.852	203.63
299.931	169.19
300.01	251.84
300.089	199.04
300.168	327.61
300.247	199.04
300.327	267.92
300.406	249.55
300.485	293.17
300.564	343.68
300.643	371.24
300.722	350.57
300.801	332.2
300.88	334.5
300.959	350.57
301.038	304.65
301.117	350.57
301.196	382.72
301.275	401.08
301.354	341.39
301.433	373.53
301.512	378.12
301.591	398.79
301.67	385.01
301.749	391.9
301.828	389.6
301.907	359.76
301.985	396.49
302.064	380.42
302.143	380.42
302.222	364.35
302.301	318.43
302.38	318.43
302.458	451.6
302.537	410.27
302.616	274.8
302.695	449.3
302.773	403.38
302.852	364.35
302.931	371.24
303.01	407.97
303.088	339.09
303.167	311.54
303.246	325.32
303.324	355.16
303.403	290.88
303.481	343.68
303.56	339.09
303.639	323.02
303.717	288.58
303.796	339.09
303.874	318.43
303.953	362.05
304.032	396.49
304.11	304.65
304.189	343.68
304.267	293.17
304.346	327.61
304.424	378.12
304.502	364.35
304.581	318.43
304.659	251.84
304.738	288.58
304.816	355.16
304.895	316.13
304.973	348.28
305.051	391.9
305.13	327.61
305.208	375.83
305.286	355.16
305.365	371.24
305.443	329.91
305.521	385.01
305.6	288.58
305.678	320.72
305.756	359.76
305.834	334.5
305.913	302.36
305.991	460.78
306.069	343.68
306.147	364.35
306.225	373.53
306.304	375.83
306.382	318.43
306.46	350.57
306.538	357.46
306.616	375.83
306.694	343.68
306.772	357.46
306.85	451.6
306.929	394.2
307.007	348.28
307.085	378.12
307.163	339.09
307.241	345.98
307.319	329.91
307.397	339.09
307.475	332.2
307.553	385.01
307.631	357.46
307.709	348.28
307.786	375.83
307.864	345.98
307.942	371.24
308.02	352.87
308.098	412.56
308.176	407.97
308.254	357.46
308.332	327.61
308.409	336.8
308.487	366.64
308.565	378.12
308.643	417.16
308.721	283.99
308.798	329.91
308.876	366.64
308.954	410.27
309.032	332.2
309.109	366.64
309.187	389.6
309.265	394.2
309.342	375.83
309.42	359.76
309.498	348.28
309.575	391.9
309.653	334.5
309.731	371.24
309.808	336.8
309.886	385.01
309.963	297.76
310.041	345.98
310.119	350.57
310.196	375.83
310.274	325.32
310.351	378.12
310.429	339.09
310.506	359.76
310.584	306.95
310.661	345.98
310.738	304.65
310.816	366.64
310.893	332.2
310.971	405.68
311.048	348.28
311.126	364.35
311.203	329.91
311.28	355.16
311.358	327.61
311.435	371.24
311.512	339.09
311.59	371.24
311.667	302.36
311.744	339.09
311.821	424.04
311.899	380.42
311.976	433.23
312.053	412.56
312.13	357.46
312.208	419.45
312.285	355.16
312.362	336.8
312.439	385.01
312.516	362.05
312.593	316.13
312.671	394.2
312.748	348.28
312.825	417.16
312.902	350.57
312.979	364.35
313.056	329.91
313.133	352.87
313.21	373.53
313.287	396.49
313.364	453.89
313.441	394.2
313.518	355.16
313.595	389.6
313.672	414.86
313.749	359.76
313.826	380.42
313.903	297.76
313.98	355.16
314.057	364.35
314.134	391.9
314.211	414.86
314.287	350.57
314.364	421.75
314.441	371.24
314.518	348.28
314.595	341.39
314.672	355.16
314.748	417.16
314.825	382.72
314.902	449.3
314.979	313.84
315.055	357.46
315.132	345.98
315.209	444.71
315.286	440.12
315.362	396.49
315.439	407.97
315.516	385.01
315.592	401.08
315.669	389.6
315.746	323.02
315.822	396.49
315.899	398.79
315.975	444.71
316.052	345.98
316.128	419.45
316.205	396.49
316.282	442.41
316.358	313.84
316.435	435.52
316.511	435.52
316.588	364.35
316.664	391.9
316.741	309.24
316.817	345.98
316.893	410.27
316.97	385.01
317.046	398.79
317.123	394.2
317.199	348.28
317.275	426.34
317.352	430.93
317.428	359.76
317.504	362.05
317.581	412.56
317.657	364.35
317.733	426.34
317.81	332.2
317.886	345.98
317.962	398.79
318.038	407.97
318.115	382.72
318.191	391.9
318.267	417.16
318.343	424.04
318.419	368.94
318.496	329.91
318.572	375.83
318.648	345.98
318.724	396.49
318.8	401.08
318.876	412.56
318.952	375.83
319.028	394.2
319.105	414.86
319.181	311.54
319.257	394.2
319.333	426.34
319.409	348.28
319.485	341.39
319.561	375.83
319.637	421.75
319.713	401.08
319.789	357.46
319.865	313.84
319.94	421.75
320.016	389.6
320.092	407.97
320.168	389.6
320.244	433.23
320.32	389.6
320.396	405.68
320.472	364.35
320.547	355.16
320.623	396.49
320.699	401.08
320.775	378.12
320.851	421.75
320.926	449.3
321.002	410.27
321.078	348.28
321.154	350.57
321.229	380.42
321.305	449.3
321.381	316.13
321.456	311.54
321.532	350.57
321.608	336.8
321.683	371.24
321.759	401.08
321.835	398.79
321.91	391.9
321.986	348.28
322.061	401.08
322.137	362.05
322.212	405.68
322.288	385.01
322.364	366.64
322.439	417.16
322.515	350.57
322.59	373.53
322.666	407.97
322.741	412.56
322.816	460.78
322.892	414.86
322.967	320.72
323.043	419.45
323.118	343.68
323.193	350.57
323.269	433.23
323.344	426.34
323.42	380.42
323.495	414.86
323.57	332.2
323.646	391.9
323.721	433.23
323.796	350.57
323.871	424.04
323.947	419.45
324.022	362.05
324.097	373.53
324.172	378.12
324.248	382.72
324.323	440.12
324.398	378.12
324.473	352.87
324.548	410.27
324.623	421.75
324.699	453.89
324.774	391.9
324.849	414.86
324.924	380.42
324.999	412.56
325.074	355.16
325.149	403.38
325.224	382.72
325.299	359.76
325.374	375.83
325.449	357.46
325.524	371.24
325.599	407.97
325.674	401.08
325.749	426.34
325.824	352.87
325.899	387.31
325.974	391.9
326.049	458.48
326.124	433.23
326.199	419.45
326.273	396.49
326.348	375.83
326.423	375.83
326.498	433.23
326.573	394.2
326.648	382.72
326.722	389.6
326.797	398.79
326.872	419.45
326.947	389.6
327.021	421.75
327.096	456.19
327.171	336.8
327.245	417.16
327.32	419.45
327.395	329.91
327.47	375.83
327.544	407.97
327.619	424.04
327.693	371.24
327.768	430.93
327.843	394.2
327.917	378.12
327.992	405.68
328.066	419.45
328.141	357.46
328.215	375.83
328.29	364.35
328.364	391.9
328.439	407.97
328.513	495.22
328.588	385.01
328.662	362.05
328.737	412.56
328.811	359.76
328.886	352.87
328.96	430.93
329.035	345.98
329.109	362.05
329.183	378.12
329.258	378.12
329.332	334.5
329.406	352.87
329.481	313.84
329.555	401.08
329.629	378.12
329.704	364.35
329.778	378.12
329.852	350.57
329.926	394.2
330.001	428.64
330.075	444.71
330.149	419.45
330.223	474.56
330.297	385.01
330.372	458.48
330.446	451.6
330.52	385.01
330.594	385.01
330.668	398.79
330.742	375.83
330.816	396.49
330.89	389.6
330.964	394.2
331.038	382.72
331.113	421.75
331.187	414.86
331.261	355.16
331.335	407.97
331.409	343.68
331.483	421.75
331.557	373.53
331.63	417.16
331.704	410.27
331.778	401.08
331.852	412.56
331.926	453.89
332	410.27
332.074	389.6
332.148	430.93
332.222	385.01
332.295	428.64
332.369	366.64
332.443	442.41
332.517	449.3
332.591	430.93
332.665	389.6
332.738	380.42
332.812	405.68
332.886	357.46
332.959	435.52
333.033	437.82
333.107	391.9
333.181	460.78
333.254	403.38
333.328	428.64
333.402	403.38
333.475	389.6
333.549	396.49
333.622	412.56
333.696	389.6
333.77	435.52
333.843	401.08
333.917	387.31
333.99	348.28
334.064	433.23
334.137	401.08
334.211	403.38
334.284	391.9
334.358	398.79
334.431	424.04
334.505	334.5
334.578	449.3
334.652	407.97
334.725	447
334.799	382.72
334.872	401.08
334.945	366.64
335.019	433.23
335.092	334.5
335.165	352.87
335.239	385.01
335.312	421.75
335.385	382.72
335.459	401.08
335.532	456.19
335.605	444.71
335.678	407.97
335.752	371.24
335.825	430.93
335.898	453.89
335.971	378.12
336.045	442.41
336.118	387.31
336.191	453.89
336.264	437.82
336.337	396.49
336.41	391.9
336.483	424.04
336.557	428.64
336.63	362.05
336.703	396.49
336.776	398.79
336.849	424.04
336.922	389.6
336.995	405.68
337.068	401.08
337.141	401.08
337.214	433.23
337.287	387.31
337.36	405.68
337.433	444.71
337.506	412.56
337.579	355.16
337.652	396.49
337.725	456.19
337.797	391.9
337.87	352.87
337.943	412.56
338.016	378.12
338.089	398.79
338.162	417.16
338.235	414.86
338.307	403.38
338.38	387.31
338.453	428.64
338.526	428.64
338.598	419.45
338.671	417.16
338.744	396.49
338.817	440.12
338.889	435.52
338.962	334.5
339.035	410.27
339.107	359.76
339.18	407.97
339.253	391.9
339.325	419.45
339.398	375.83
339.47	410.27
339.543	447
339.616	426.34
339.688	467.67
339.761	380.42
339.833	412.56
339.906	435.52
339.978	401.08
340.051	435.52
340.123	437.82
340.196	435.52
340.268	442.41
340.341	426.34
340.413	410.27
340.485	403.38
340.558	511.29
340.63	456.19
340.703	355.16
340.775	394.2
340.847	421.75
340.92	343.68
340.992	444.71
341.064	385.01
341.137	412.56
341.209	407.97
341.281	447
341.354	405.68
341.426	389.6
341.498	453.89
341.57	442.41
341.643	426.34
341.715	451.6
341.787	405.68
341.859	419.45
341.931	469.96
342.003	424.04
342.076	405.68
342.148	433.23
342.22	440.12
342.292	447
342.364	373.53
342.436	391.9
342.508	405.68
342.58	435.52
342.652	421.75
342.724	444.71
342.796	412.56
342.868	428.64
342.94	424.04
343.012	412.56
343.084	414.86
343.156	449.3
343.228	403.38
343.3	410.27
343.372	375.83
343.444	405.68
343.516	403.38
343.588	476.85
343.66	371.24
343.731	476.85
343.803	424.04
343.875	426.34
343.947	398.79
344.019	428.64
344.09	444.71
344.162	405.68
344.234	465.37
344.306	474.56
344.377	362.05
344.449	364.35
344.521	419.45
344.593	412.56
344.664	398.79
344.736	424.04
344.808	449.3
344.879	417.16
344.951	412.56
345.023	469.96
345.094	492.92
345.166	467.67
345.237	364.35
345.309	421.75
345.38	387.31
345.452	458.48
345.524	407.97
345.595	417.16
345.667	458.48
345.738	428.64
345.81	467.67
345.881	433.23
345.953	437.82
346.024	403.38
346.095	430.93
346.167	481.44
346.238	460.78
346.31	407.97
346.381	421.75
346.452	522.77
346.524	405.68
346.595	469.96
346.666	433.23
346.738	458.48
346.809	417.16
346.88	474.56
346.952	405.68
347.023	401.08
347.094	398.79
347.165	437.82
347.237	467.67
347.308	488.33
347.379	426.34
347.45	433.23
347.521	486.04
347.593	449.3
347.664	488.33
347.735	433.23
347.806	451.6
347.877	417.16
347.948	490.63
348.019	414.86
348.09	492.92
348.161	451.6
348.233	414.86
348.304	479.15
348.375	492.92
348.446	481.44
348.517	525.07
348.588	396.49
348.659	479.15
348.73	463.08
348.801	437.82
348.871	465.37
348.942	506.7
349.013	442.41
349.084	451.6
349.155	453.89
349.226	412.56
349.297	451.6
349.368	479.15
349.439	465.37
349.509	447
349.58	458.48
349.651	469.96
349.722	419.45
349.793	440.12
349.863	463.08
349.934	463.08
350.005	502.11
350.076	486.04
350.146	453.89
350.217	492.92
350.288	456.19
350.358	435.52
350.429	435.52
350.5	538.84
350.57	490.63
350.641	463.08
350.711	502.11
350.782	433.23
350.853	504.4
350.923	502.11
350.994	520.48
351.064	499.81
351.135	451.6
351.205	490.63
351.276	486.04
351.346	522.77
351.417	483.74
351.487	552.62
351.558	483.74
351.628	536.55
351.699	596.24
351.769	614.61
351.84	557.21
351.91	495.22
351.98	534.25
352.051	531.96
352.121	550.32
352.191	587.06
352.262	605.43
352.332	548.03
352.402	554.92
352.473	715.64
352.543	701.86
352.613	619.21
352.683	674.31
352.754	672.01
352.824	582.47
352.894	708.75
352.964	727.12
353.035	782.22
353.105	722.53
353.175	791.41
353.245	800.59
353.315	814.37
353.385	818.96
353.455	844.21
353.526	874.06
353.596	906.21
353.666	917.69
353.736	929.17
353.806	981.97
353.876	1089.89
353.946	1078.41
354.016	1101.37
354.086	1112.85
354.156	1156.47
354.226	1216.17
354.296	1291.94
354.366	1239.13
354.436	1282.75
354.506	1459.54
354.576	1539.9
354.645	1482.5
354.715	1597.31
354.785	1578.94
354.855	1707.51
354.925	1744.25
354.995	1746.55
355.065	1813.13
355.134	1849.87
355.204	1882.01
355.274	2047.32
355.344	2118.5
355.414	2219.52
355.483	2320.55
355.553	2249.37
355.623	2400.91
355.693	2456.01
355.762	2731.53
355.832	2648.88
355.902	2827.97
355.971	2912.92
356.041	2889.96
356.111	3193.03
356.18	3188.44
356.25	3379.01
356.319	3413.45
356.389	3631.57
356.459	3663.71
356.528	3849.69
356.598	3842.8
356.667	3998.93
356.737	4070.11
356.806	4329.56
356.876	4547.68
356.945	4625.74
357.015	4680.85
357.084	4818.61
357.154	4979.33
357.223	5107.9
357.292	5404.09
357.362	5454.6
357.431	5505.11
357.501	5838.03
357.57	6099.78
357.639	6187.03
357.709	6510.77
357.778	6490.1
357.847	6951.6
357.917	6949.3
357.986	7126.1
358.055	7112.32
358.124	7622.03
358.194	7856.23
358.263	7980.21
358.332	8365.94
358.401	8703.45
358.471	9022.6
358.54	8956.02
358.609	9344.04
358.678	9582.83
358.747	9959.37
358.816	10260.15
358.886	10287.7
358.955	10604.55
359.024	11141.82
359.093	11288.76
359.162	11454.07
359.231	12000.52
359.3	12071.7
359.369	12422.99
359.438	12726.06
359.507	13038.32
359.576	13614.62
359.645	13717.94
359.714	14349.34
359.783	14560.57
359.852	14950.9
359.921	15256.27
359.99	15414.69
360.059	15917.52
360.128	16046.09
360.197	16466.26
360.266	17070.11
360.334	17446.66
360.403	17639.52
360.472	18314.55
360.541	18596.96
360.61	18982.69
360.679	19198.51
360.747	19914.87
360.816	20174.32
360.885	20677.14
360.954	20847.05
361.022	21400.39
361.091	21813.67
361.16	22160.37
361.228	22869.83
361.297	23170.61
361.366	23737.73
361.434	24536.74
361.503	24603.32
361.572	25468.92
361.64	25714.59
361.709	26187.57
361.778	26683.51
361.846	26940.66
361.915	27659.31
361.983	28217.24
362.052	28926.71
362.12	28862.42
362.189	29542.04
362.257	29833.63
362.326	30331.86
362.394	31179.09
362.463	31266.34
362.531	31799.01
362.6	32223.78
362.668	32391.38
362.737	33236.32
362.805	34046.81
362.873	34510.6
362.942	34848.12
363.01	35367.01
363.079	35509.37
363.147	36439.25
363.215	36335.93
363.284	37091.32
363.352	37860.48
363.42	38161.26
363.488	38452.85
363.557	38813.32
363.625	39858.01
363.693	39805.2
363.761	40374.61
363.83	40923.36
363.898	41545.57
363.966	42273.41
364.034	43157.37
364.102	42776.24
364.171	43012.73
364.239	43426.01
364.307	43986.23
364.375	44392.63
364.443	45024.03
364.511	45076.84
364.579	45260.52
364.647	46013.61
364.715	46236.32
364.783	46684.04
364.851	47033.04
364.919	47239.68
364.987	47974.4
365.055	47873.38
365.123	48787.19
365.191	49145.37
365.259	49060.41
365.327	49161.44
365.395	49827.28
365.463	49990.3
365.531	50587.26
365.599	50529.86
365.667	50883.45
365.735	50683.69
365.802	51331.17
365.87	51092.38
365.938	51411.53
366.006	51804.15
366.074	51765.11
366.142	52024.56
366.209	52134.77
366.277	52375.85
366.345	52192.17
366.413	52736.33
366.48	52756.99
366.548	53050.88
366.616	52959.04
366.683	53142.72
366.751	53209.3
366.819	53351.66
366.886	53595.03
366.954	53489.42
367.022	53553.7
367.089	53372.32
367.157	53631.77
367.224	53436.61
367.292	53801.67
367.36	53494.01
367.427	53631.77
367.495	53629.47
367.562	53741.98
367.63	53778.71
367.697	53909.59
367.765	53840.71
367.832	54182.81
367.9	53748.87
367.967	53730.5
368.034	53399.87
368.102	53530.74
368.169	53854.48
368.237	53829.23
368.304	53457.27
368.371	53461.86
368.439	53629.47
368.506	53257.52
368.573	53452.68
368.641	53308.03
368.708	53264.41
368.775	53448.09
368.843	52917.71
368.91	52883.27
368.977	52961.33
369.044	53312.62
369.112	52476.88
369.179	52362.08
369.246	52249.57
369.313	52531.98
369.38	52150.84
369.448	52541.16
369.515	52148.55
369.582	51643.42
369.649	51985.53
369.716	51923.54
369.783	51374.79
369.85	51404.64
369.917	51372.5
369.984	50867.37
370.052	50851.3
370.119	50750.28
370.186	50738.8
370.253	50433.43
370.32	50534.45
370.387	50258.93
370.454	50318.63
370.521	49372.67
370.587	49384.15
370.654	49007.61
370.721	49301.5
370.788	48711.42
370.855	48931.84
370.922	48530.04
370.989	48557.59
371.056	48562.18
371.123	47861.9
371.189	47687.4
371.256	47565.71
371.323	47212.13
371.39	47131.77
371.457	46927.42
371.523	46977.93
371.59	46881.5
371.657	46360.31
371.724	46677.16
371.79	46254.69
371.857	46307.5
371.924	46089.38
371.991	45483.23
372.057	45292.66
372.124	45315.62
372.191	45315.62
372.257	44764.58
372.324	44893.16
372.39	44514.32
372.457	44231.91
372.524	43832.4
372.59	43777.3
372.657	43327.28
372.723	42957.62
372.79	42734.91
372.856	42718.84
372.923	42186.16
372.989	42884.15
373.056	42069.07
373.122	41655.78
373.189	41380.26
373.255	41430.77
373.322	41063.41
373.388	40996.83
373.454	40592.73
373.521	40569.77
373.587	40324.1
373.654	40140.42
373.72	40349.35
373.786	39775.35
373.853	39492.94
373.919	39288.6
373.985	38898.28
374.052	38845.47
374.118	38163.55
374.184	38335.75
374.25	38154.37
374.317	38445.96
374.383	37562
374.449	37752.57
374.515	37242.85
374.581	37141.83
374.648	36682.63
374.714	36593.08
374.78	35996.12
374.846	36273.94
374.912	35911.17
374.978	35667.79
375.044	35226.96
375.11	35309.61
375.177	34834.34
375.243	34740.2
375.309	34471.57
375.375	34021.55
375.441	34177.68
375.507	34067.47
375.573	33617.45
375.639	33656.49
375.705	32963.09
375.771	32333.98
375.837	32402.86
375.903	32301.84
375.968	31913.81
376.034	31686.51
376.1	31367.36
376.166	31342.11
376.232	30910.46
376.298	30733.67
376.364	30414.52
376.43	29941.54
376.495	30031.09
376.561	29300.96
376.627	29560.41
376.693	29480.04
376.759	28674.15
376.824	28547.86
376.89	28490.46
376.956	28442.25
377.022	27845.29
377.087	27810.85
377.153	27411.34
377.219	27213.88
377.284	26949.84
377.35	26577.89
377.416	26759.27
377.481	26210.53
377.547	25648
377.613	25583.72
377.678	25305.9
377.744	25181.92
377.809	24943.13
377.875	24663.02
377.94	24497.7
378.006	24137.23
378.071	24066.05
378.137	23969.62
378.202	23489.76
378.268	23319.85
378.333	23108.62
378.399	22539.21
378.464	22780.29
378.53	22619.57
378.595	22121.33
378.661	22245.32
378.726	21827.45
378.791	21698.87
378.857	21283.29
378.922	21163.9
378.987	21248.85
379.053	20911.34
379.118	20493.46
379.183	20247.79
379.249	20275.34
379.314	19891.91
379.379	20034.26
379.444	19646.24
379.51	19469.44
379.575	19216.88
379.64	19097.49
379.705	18870.18
379.771	18534.97
379.836	18371.95
379.901	18117.09
379.966	18094.13
380.031	17784.17
380.096	17859.94
380.161	17657.89
380.227	17412.22
380.292	17281.35
380.357	17240.02
380.422	17017.31
380.487	16874.95
380.552	16466.26
380.617	16741.78
380.682	16427.23
380.747	16241.25
380.812	16229.77
380.877	15947.36
380.942	15694.8
381.007	15483.57
381.072	15554.75
381.137	15453.72
381.202	15260.86
381.266	14987.63
381.331	15171.31
381.396	14849.87
381.461	14629.46
381.526	14574.35
381.591	14266.69
381.656	14330.97
381.72	14225.36
381.785	14147.29
381.85	13922.28
381.915	13557.22
381.979	13327.62
382.044	13481.45
382.109	13327.62
382.174	13091.13
382.238	13153.12
382.303	13070.46
382.368	12999.29
382.432	12693.92
382.497	12730.66
382.562	12514.83
382.626	12266.86
382.691	12524.01
382.756	12230.13
382.82	11881.13
382.885	11929.35
382.949	11865.06
383.014	11805.36
383.078	11603.31
383.143	11534.43
383.208	11314.02
383.272	11006.35
383.337	11105.08
383.401	11036.2
383.465	10762.98
383.53	10680.32
383.594	10834.15
383.659	10664.25
383.723	10496.64
383.788	10423.17
383.852	10193.56
383.916	10074.17
383.981	10140.76
384.045	10087.95
384.109	9950.19
384.174	10009.88
384.238	9651.71
384.302	9566.75
384.367	9530.02
384.431	9534.61
384.495	9316.49
384.56	9256.79
384.624	9178.73
384.688	8981.27
384.752	9020.3
384.816	8666.72
384.881	8793
384.945	8662.13
385.009	8705.75
385.073	8625.39
385.137	8540.44
385.201	8400.38
385.265	8322.32
385.33	8329.21
385.394	8010.06
385.458	7847.04
385.522	7929.7
385.586	8046.8
385.65	7993.99
385.714	7734.54
385.778	7601.37
385.842	7697.8
385.906	7688.62
385.97	7509.53
386.034	7399.32
386.098	7222.53
386.162	7266.15
386.226	7312.07
386.29	6928.64
386.354	7061.81
386.417	6986.04
386.481	6903.38
386.545	6926.34
386.609	6637.05
386.673	6666.89
386.737	6593.42
386.8	6588.83
386.864	6370.71
386.928	6469.44
386.992	6327.08
387.056	6170.96
387.119	6416.63
387.183	6129.63
387.247	6122.74
387.31	5987.28
387.374	5932.17
387.438	6083.71
387.502	5810.48
387.565	5789.82
387.629	5670.43
387.692	5619.91
387.756	5585.47
387.82	5495.93
387.883	5521.19
387.947	5456.9
388.01	5307.66
388.074	5314.54
388.138	5282.4
388.201	5190.56
388.265	4928.81
388.328	5110.2
388.392	4954.07
388.455	4882.89
388.519	4979.33
388.582	4944.89
388.645	4910.45
388.709	4763.5
388.772	4807.13
388.836	4630.33
388.899	4561.45
388.962	4752.02
389.026	4527.01
389.089	4451.24
389.153	4478.8
389.216	4517.83
389.279	4391.55
389.343	4251.49
389.406	4283.64
389.469	4347.92
389.532	4113.73
389.596	4125.21
389.659	4058.63
389.722	4047.15
389.785	4019.6
389.848	3966.79
389.912	3789.99
389.975	3902.5
390.038	3801.47
390.101	3769.33
390.164	3874.95
390.227	3824.43
390.291	3709.63
390.354	3718.82
390.417	3555.8
390.48	3590.24
390.543	3436.41
390.606	3562.69
390.669	3447.89
390.732	3459.37
390.795	3447.89
390.858	3385.9
390.921	3342.27
390.984	3404.26
391.047	3245.84
391.11	3183.85
391.173	3245.84
391.236	3268.8
391.299	3195.33
391.362	3183.85
391.424	2993.28
391.487	3087.42
391.55	3030.02
391.613	3025.42
391.676	2942.77
391.739	2892.25
391.802	2889.96
391.864	2928.99
391.927	2912.92
391.99	2802.71
392.053	2676.43
392.115	2832.56
392.178	2832.56
392.241	2692.5
392.304	2641.99
392.366	2609.85
392.429	2692.5
392.492	2614.44
392.554	2545.56
392.617	2483.56
392.68	2531.78
392.742	2481.27
392.805	2515.71
392.867	2527.19
392.93	2449.12
392.992	2446.83
393.055	2476.68
393.118	2423.87
393.18	2361.88
393.243	2410.09
393.305	2343.51
393.368	2318.25
393.43	2354.99
393.493	2302.18
393.555	2302.18
393.618	2274.63
393.68	2315.96
393.742	2118.5
393.805	2157.53
393.867	2157.53
393.93	2175.9
393.992	2035.84
394.054	2111.61
394.117	2028.95
394.179	2079.47
394.241	2033.55
394.304	1978.44
394.366	1978.44
394.428	2005.99
394.49	1980.74
394.553	1999.11
394.615	1875.12
394.677	1921.04
394.739	1962.37
394.802	1854.46
394.864	1904.97
394.926	1884.31
394.988	1820.02
395.05	1941.71
395.112	1845.27
395.174	1797.06
395.237	1764.91
395.299	1769.51
395.361	1760.32
395.423	1744.25
395.485	1744.25
395.547	1746.55
395.609	1730.47
395.671	1822.31
395.733	1698.33
395.795	1643.23
395.857	1636.34
395.919	1581.23
395.981	1585.83
396.043	1721.29
396.105	1487.1
396.167	1526.13
396.229	1576.64
396.291	1574.35
396.352	1627.15
396.414	1505.46
396.476	1461.84
396.538	1500.87
396.6	1457.25
396.662	1503.17
396.724	1523.83
396.785	1397.55
396.847	1392.96
396.909	1409.03
396.971	1409.03
397.032	1418.22
397.094	1480.21
397.156	1390.66
397.218	1347.04
397.279	1360.82
397.341	1282.75
397.403	1264.38
397.464	1296.53
397.526	1280.46
397.588	1314.9
397.649	1326.38
397.711	1239.13
397.772	1273.57
397.834	1282.75
397.896	1163.36
397.957	1246.02
398.019	1243.72
398.08	1188.62
398.142	1225.35
398.203	1184.02
398.265	1142.7
398.326	1181.73
398.388	1213.87
398.449	1154.18
398.511	1147.29
398.572	1103.66
398.633	1174.84
398.695	1103.66
398.756	1073.81
398.818	1092.18
398.879	1122.03
398.94	1124.33
399.002	1071.52
399.063	1151.88
399.124	1078.41
399.186	1076.11
399.247	1062.33
399.308	1064.63
399.369	1057.74
399.431	1085.3
399.492	1076.11
399.553	968.2
399.614	1037.08
399.676	1057.74
399.737	947.53
399.798	1021.01
399.859	924.57
399.92	1018.71
399.981	979.68
400.042	1002.64
400.104	993.45
400.165	1000.34
400.226	1037.08
400.287	986.57
400.348	915.39
400.409	970.49
400.47	945.24
400.531	839.62
400.592	892.43
400.653	894.73
400.714	890.13
400.775	876.36
400.836	892.43
400.897	933.76
400.958	947.53
401.019	908.5
401.08	851.1
401.141	837.33
401.201	867.17
401.262	874.06
401.323	747.78
401.384	913.09
401.445	846.51
401.506	887.84
401.567	874.06
401.627	823.55
401.688	832.73
401.749	759.26
401.81	830.44
401.87	855.69
401.931	876.36
401.992	756.97
402.053	848.81
402.113	832.73
402.174	786.81
402.235	814.37
402.295	786.81
402.356	736.3
402.417	798.29
402.477	752.37
402.538	784.52
402.598	756.97
402.659	713.34
402.719	706.45
402.78	724.82
402.841	717.93
402.901	731.71
402.962	766.15
403.022	761.56
403.083	756.97
403.143	763.85
403.204	711.05
403.264	773.04
403.324	706.45
403.385	694.97
403.445	782.22
403.506	763.85
403.566	690.38
403.627	743.19
403.687	802.89
403.747	612.32
403.808	630.69
403.868	685.79
403.928	637.57
403.989	731.71
404.049	600.84
404.109	683.49
404.169	637.57
404.23	694.97
404.29	674.31
404.35	681.2
404.41	607.73
404.47	630.69
404.531	655.94
404.591	667.42
404.651	598.54
404.711	681.2
404.771	632.98
404.831	635.28
404.892	582.47
404.952	672.01
405.012	575.58
405.072	674.31
405.132	612.32
405.192	607.73
405.252	653.65
405.312	605.43
405.372	607.73
405.432	605.43
405.492	580.17
405.552	515.88
405.612	614.61
405.672	612.32
405.732	582.47
405.792	616.91
405.852	612.32
405.912	637.57
405.971	573.28
406.031	584.76
406.091	630.69
406.151	531.96
406.211	593.95
406.271	580.17
406.33	591.65
406.39	522.77
406.45	564.1
406.51	582.47
406.57	612.32
406.629	548.03
406.689	559.51
406.749	644.46
406.808	525.07
406.868	486.04
406.928	577.88
406.988	518.18
407.047	575.58
407.107	580.17
407.166	550.32
407.226	605.43
407.286	593.95
407.345	550.32
407.405	561.8
407.464	509
407.524	504.4
407.584	518.18
407.643	564.1
407.703	603.13
407.762	566.4
407.822	541.14
407.881	511.29
407.941	534.25
408	490.63
408.059	518.18
408.119	481.44
408.178	476.85
408.238	488.33
408.297	593.95
408.356	492.92
408.416	460.78
408.475	518.18
408.535	492.92
408.594	463.08
408.653	531.96
408.712	570.99
408.772	497.52
408.831	522.77
408.89	456.19
408.95	495.22
409.009	447
409.068	488.33
409.127	481.44
409.186	476.85
409.246	536.55
409.305	499.81
409.364	525.07
409.423	492.92
409.482	490.63
409.541	520.48
409.6	488.33
409.66	511.29
409.719	495.22
409.778	552.62
409.837	504.4
409.896	437.82
409.955	509
410.014	463.08
410.073	447
410.132	440.12
410.191	490.63
410.25	543.44
410.309	474.56
410.368	490.63
410.427	435.52
410.486	447
410.545	465.37
410.603	486.04
410.662	469.96
410.721	479.15
410.78	531.96
410.839	490.63
410.898	453.89
410.957	506.7
411.015	437.82
411.074	467.67
411.133	456.19
411.192	465.37
411.25	419.45
411.309	463.08
411.368	430.93
411.427	453.89
411.485	449.3
411.544	426.34
411.603	419.45
411.661	504.4
411.72	502.11
411.779	458.48
411.837	387.31
411.896	490.63
411.955	444.71
412.013	509
412.072	449.3
412.13	447
412.189	492.92
412.247	506.7
412.306	488.33
412.364	435.52
412.423	453.89
412.481	430.93
412.54	465.37
412.598	424.04
412.657	373.53
412.715	451.6
412.774	389.6
412.832	490.63
412.891	479.15
412.949	476.85
413.007	488.33
413.066	428.64
413.124	497.52
413.182	433.23
413.241	453.89
413.299	456.19
413.357	453.89
413.416	405.68
413.474	424.04
413.532	469.96
413.59	398.79
413.649	414.86
413.707	474.56
413.765	479.15
413.823	424.04
413.881	483.74
413.94	345.98
413.998	398.79
414.056	428.64
414.114	368.94
414.172	430.93
414.23	407.97
414.288	428.64
414.347	398.79
414.405	469.96
414.463	504.4
414.521	442.41
414.579	389.6
414.637	428.64
414.695	391.9
414.753	444.71
414.811	391.9
414.869	437.82
414.927	458.48
414.985	426.34
415.043	447
415.101	458.48
415.158	403.38
415.216	499.81
415.274	410.27
415.332	440.12
415.39	426.34
415.448	417.16
415.506	479.15
415.563	435.52
415.621	398.79
415.679	428.64
415.737	391.9
415.795	410.27
415.852	502.11
415.91	428.64
415.968	389.6
416.026	430.93
416.083	339.09
416.141	486.04
416.199	407.97
416.256	396.49
416.314	412.56
416.372	449.3
416.429	362.05
416.487	433.23
416.544	447
416.602	449.3
416.66	403.38
416.717	424.04
416.775	405.68
416.832	430.93
416.89	385.01
416.947	472.26
417.005	414.86
417.062	359.76
417.12	375.83
417.177	283.99
417.235	350.57
417.292	511.29
417.35	410.27
417.407	453.89
417.464	435.52
417.522	332.2
417.579	339.09
417.637	417.16
417.694	364.35
417.751	405.68
417.809	373.53
417.866	417.16
417.923	396.49
417.981	407.97
418.038	378.12
418.095	403.38
418.152	424.04
418.21	401.08
418.267	414.86
418.324	460.78
418.381	398.79
418.438	442.41
418.496	366.64
418.553	382.72
418.61	373.53
418.667	401.08
418.724	387.31
418.781	389.6
418.838	407.97
418.895	486.04
418.952	435.52
419.01	433.23
419.067	368.94
419.124	313.84
419.181	339.09
419.238	442.41
419.295	373.53
419.352	414.86
419.409	456.19
419.466	417.16
419.523	469.96
419.579	385.01
419.636	433.23
419.693	366.64
419.75	396.49
419.807	405.68
419.864	398.79
419.921	465.37
419.978	426.34
420.034	341.39
420.091	396.49
420.148	433.23
420.205	366.64
420.262	364.35
420.318	359.76
420.375	456.19
420.432	378.12
420.489	476.85
420.545	453.89
420.602	451.6
420.659	334.5
420.715	350.57
420.772	394.2
420.829	437.82
420.885	345.98
420.942	442.41
420.999	387.31
421.055	412.56
421.112	371.24
421.168	417.16
421.225	391.9
421.282	419.45
421.338	371.24
421.395	345.98
421.451	341.39
421.508	362.05
421.564	394.2
421.621	345.98
421.677	417.16
421.734	414.86
421.79	378.12
421.846	430.93
421.903	389.6
421.959	401.08
422.016	424.04
422.072	387.31
422.128	389.6
422.185	368.94
422.241	362.05
422.297	391.9
422.354	447
422.41	382.72
422.466	373.53
422.523	396.49
422.579	320.72
422.635	440.12
422.691	426.34
422.748	385.01
422.804	345.98
422.86	407.97
422.916	412.56
422.972	460.78
423.029	352.87
423.085	389.6
423.141	401.08
423.197	417.16
423.253	313.84
423.309	355.16
423.365	341.39
423.421	412.56
423.477	456.19
423.533	359.76
423.589	407.97
423.645	378.12
423.701	357.46
423.757	417.16
423.813	410.27
423.869	327.61
423.925	410.27
423.981	357.46
424.037	401.08
424.093	412.56
424.149	366.64
424.205	362.05
424.261	394.2
424.317	362.05
424.373	407.97
424.428	421.75
424.484	364.35
424.54	366.64
424.596	447
424.652	341.39
424.708	366.64
424.763	440.12
424.819	407.97
424.875	343.68
424.931	350.57
424.986	357.46
425.042	426.34
425.098	391.9
425.153	424.04
425.209	373.53
425.265	440.12
425.32	401.08
425.376	357.46
425.432	378.12
425.487	366.64
425.543	316.13
425.598	339.09
425.654	357.46
425.709	359.76
425.765	389.6
425.82	364.35
425.876	343.68
425.932	311.54
425.987	382.72
426.042	336.8
426.098	398.79
426.153	368.94
426.209	362.05
426.264	412.56
426.32	297.76
426.375	405.68
426.43	405.68
426.486	364.35
426.541	389.6
426.597	364.35
426.652	378.12
426.707	410.27
426.763	453.89
426.818	368.94
426.873	394.2
426.928	373.53
426.984	362.05
427.039	336.8
427.094	401.08
427.149	325.32
427.205	375.83
427.26	387.31
427.315	297.76
427.37	380.42
427.425	359.76
427.48	352.87
427.536	355.16
427.591	355.16
427.646	387.31
427.701	396.49
427.756	401.08
427.811	389.6
427.866	325.32
427.921	378.12
427.976	341.39
428.031	375.83
428.086	391.9
428.141	368.94
428.196	373.53
428.251	355.16
428.306	348.28
428.361	348.28
428.416	318.43
428.471	334.5
428.526	366.64
428.581	352.87
428.636	357.46
428.691	385.01
428.745	396.49
428.8	352.87
428.855	382.72
428.91	352.87
428.965	412.56
429.02	373.53
429.074	309.24
429.129	362.05
429.184	336.8
429.239	343.68
429.293	325.32
429.348	421.75
429.403	345.98
429.457	339.09
429.512	424.04
429.567	391.9
429.621	366.64
429.676	316.13
429.731	329.91
429.785	304.65
429.84	362.05
429.895	357.46
429.949	391.9
430.004	380.42
430.058	410.27
430.113	391.9
430.167	334.5
430.222	375.83
430.276	405.68
430.331	362.05
430.385	412.56
430.44	387.31
430.494	366.64
430.549	364.35
430.603	387.31
430.657	352.87
430.712	350.57
430.766	348.28
430.821	357.46
430.875	309.24
430.929	382.72
430.984	405.68
431.038	329.91
431.092	357.46
431.147	389.6
431.201	394.2
431.255	428.64
431.309	329.91
431.364	348.28
431.418	364.35
431.472	343.68
431.526	339.09
431.581	375.83
431.635	430.93
431.689	352.87
431.743	401.08
431.797	311.54
431.851	389.6
431.906	389.6
431.96	396.49
432.014	371.24
432.068	389.6
432.122	382.72
432.176	295.47
432.23	410.27
432.284	382.72
432.338	391.9
432.392	348.28
432.446	345.98
432.5	398.79
432.554	394.2
432.608	366.64
432.662	417.16
432.716	385.01
432.77	364.35
432.824	389.6
432.878	316.13
432.931	336.8
432.985	366.64
433.039	412.56
433.093	396.49
433.147	332.2
433.201	394.2
433.254	375.83
433.308	371.24
433.362	309.24
433.416	387.31
433.47	357.46
433.523	352.87
433.577	428.64
433.631	320.72
433.684	396.49
433.738	366.64
433.792	345.98
433.846	283.99
433.899	293.17
433.953	419.45
434.006	357.46
434.06	343.68
434.114	339.09
434.167	339.09
434.221	339.09
