Data from FLMS155811_12-31-54-829.txt Node
Date: Mon Mar 23 12:31:54 MDT 2020
User: ECEn Student
Spectrometer: FLMS15581
Trigger mode: 0
Integration Time (sec): 1.000000E-1
Scans to average: 1
Electric dark correction enabled: true
Nonlinearity correction enabled: false
Boxcar width: 0
XAxis mode: Wavelengths
Number of Pixels in Spectrum: 2048
>>>>>Begin Spectral Data<<<<<
298.026	19.37
298.106	19.37
298.185	19.37
298.265	-65.58
298.344	-26.55
298.424	-125.28
298.503	-111.5
298.583	-24.25
298.662	-116.09
298.741	-47.21
298.821	-8.18
298.9	12.48
298.98	33.15
299.059	-58.69
299.138	26.26
299.217	-5.88
299.297	42.33
299.376	65.29
299.455	111.21
299.535	49.22
299.614	157.13
299.693	111.21
299.772	182.39
299.852	196.17
299.931	230.61
300.01	159.43
300.089	214.53
300.168	274.23
300.247	253.57
300.327	255.86
300.406	418.88
300.485	317.85
300.564	301.78
300.643	290.3
300.722	356.89
300.801	350
300.88	340.81
300.959	398.21
301.038	418.88
301.117	434.95
301.196	347.7
301.275	333.93
301.354	372.96
301.433	455.61
301.512	423.47
301.591	338.52
301.67	446.43
301.749	423.47
301.828	418.88
301.907	389.03
301.985	434.95
302.064	395.92
302.143	384.44
302.222	446.43
302.301	363.77
302.38	372.96
302.458	393.62
302.537	389.03
302.616	377.55
302.695	350
302.773	423.47
302.852	393.62
302.931	377.55
303.01	407.4
303.088	379.85
303.167	329.33
303.246	356.89
303.324	338.52
303.403	400.51
303.481	391.33
303.56	366.07
303.639	361.48
303.717	356.89
303.796	395.92
303.874	386.73
303.953	425.77
304.032	395.92
304.11	301.78
304.189	411.99
304.267	389.03
304.346	368.37
304.424	407.4
304.502	421.17
304.581	379.85
304.659	428.06
304.738	375.25
304.816	359.18
304.895	315.56
304.973	340.81
305.051	359.18
305.13	384.44
305.208	393.62
305.286	363.77
305.365	453.32
305.443	411.99
305.521	379.85
305.6	384.44
305.678	340.81
305.756	400.51
305.834	352.29
305.913	377.55
305.991	356.89
306.069	343.11
306.147	395.92
306.225	395.92
306.304	347.7
306.382	370.66
306.46	363.77
306.538	366.07
306.616	333.93
306.694	389.03
306.772	418.88
306.85	414.29
306.929	398.21
307.007	395.92
307.085	414.29
307.163	409.69
307.241	379.85
307.319	432.65
307.397	389.03
307.475	379.85
307.553	395.92
307.631	391.33
307.709	375.25
307.786	354.59
307.864	382.14
307.942	379.85
308.02	386.73
308.098	384.44
308.176	405.1
308.254	363.77
308.332	372.96
308.409	407.4
308.487	402.81
308.565	421.17
308.643	464.8
308.721	322.45
308.798	437.25
308.876	444.13
308.954	366.07
309.032	382.14
309.109	398.21
309.187	363.77
309.265	409.69
309.342	407.4
309.42	377.55
309.498	405.1
309.575	382.14
309.653	441.84
309.731	405.1
309.808	421.17
309.886	393.62
309.963	377.55
310.041	366.07
310.119	384.44
310.196	356.89
310.274	347.7
310.351	379.85
310.429	389.03
310.506	457.91
310.584	416.58
310.661	462.5
310.738	382.14
310.816	400.51
310.893	421.17
310.971	372.96
311.048	345.41
311.126	350
311.203	386.73
311.28	389.03
311.358	428.06
311.435	391.33
311.512	430.36
311.59	444.13
311.667	455.61
311.744	391.33
311.821	354.59
311.899	343.11
311.976	446.43
312.053	368.37
312.13	350
312.208	363.77
312.285	418.88
312.362	363.77
312.439	384.44
312.516	379.85
312.593	395.92
312.671	372.96
312.748	391.33
312.825	434.95
312.902	423.47
312.979	398.21
313.056	405.1
313.133	414.29
313.21	386.73
313.287	425.77
313.364	446.43
313.441	402.81
313.518	398.21
313.595	370.66
313.672	492.35
313.749	469.39
313.826	439.54
313.903	391.33
313.98	322.45
314.057	432.65
314.134	439.54
314.211	462.5
314.287	377.55
314.364	402.81
314.441	407.4
314.518	430.36
314.595	340.81
314.672	398.21
314.748	393.62
314.825	418.88
314.902	430.36
314.979	430.36
315.055	340.81
315.132	407.4
315.209	418.88
315.286	434.95
315.362	421.17
315.439	448.73
315.516	432.65
315.592	473.98
315.669	455.61
315.746	462.5
315.822	411.99
315.899	393.62
315.975	382.14
316.052	437.25
316.128	354.59
316.205	407.4
316.282	434.95
316.358	372.96
316.435	464.8
316.511	451.02
316.588	368.37
316.664	437.25
316.741	350
316.817	469.39
316.893	430.36
316.97	356.89
317.046	432.65
317.123	402.81
317.199	402.81
317.275	411.99
317.352	384.44
317.428	384.44
317.504	393.62
317.581	457.91
317.657	352.29
317.733	411.99
317.81	402.81
317.886	352.29
317.962	370.66
318.038	437.25
318.115	434.95
318.191	366.07
318.267	395.92
318.343	382.14
318.419	409.69
318.496	428.06
318.572	411.99
318.648	425.77
318.724	400.51
318.8	391.33
318.876	400.51
318.952	398.21
319.028	400.51
319.105	409.69
319.181	455.61
319.257	400.51
319.333	441.84
319.409	473.98
319.485	391.33
319.561	409.69
319.637	377.55
319.713	421.17
319.789	354.59
319.865	405.1
319.94	405.1
320.016	407.4
320.092	439.54
320.168	304.08
320.244	430.36
320.32	434.95
320.396	363.77
320.472	347.7
320.547	370.66
320.623	379.85
320.699	400.51
320.775	400.51
320.851	434.95
320.926	382.14
321.002	395.92
321.078	400.51
321.154	363.77
321.229	460.21
321.305	405.1
321.381	467.09
321.456	418.88
321.532	400.51
321.608	425.77
321.683	453.32
321.759	416.58
321.835	391.33
321.91	414.29
321.986	359.18
322.061	460.21
322.137	418.88
322.212	428.06
322.288	434.95
322.364	448.73
322.439	480.87
322.515	483.17
322.59	391.33
322.666	414.29
322.741	416.58
322.816	428.06
322.892	428.06
322.967	460.21
323.043	402.81
323.118	432.65
323.193	386.73
323.269	460.21
323.344	462.5
323.42	398.21
323.495	434.95
323.57	430.36
323.646	467.09
323.721	386.73
323.796	423.47
323.871	441.84
323.947	375.25
324.022	375.25
324.097	462.5
324.172	453.32
324.248	384.44
324.323	457.91
324.398	434.95
324.473	492.35
324.548	423.47
324.623	384.44
324.699	384.44
324.774	423.47
324.849	473.98
324.924	444.13
324.999	448.73
325.074	457.91
325.149	393.62
325.224	395.92
325.299	405.1
325.374	448.73
325.449	416.58
325.524	434.95
325.599	471.69
325.674	453.32
325.749	439.54
325.824	395.92
325.899	372.96
325.974	377.55
326.049	446.43
326.124	467.09
326.199	425.77
326.273	414.29
326.348	375.25
326.423	409.69
326.498	439.54
326.573	414.29
326.648	462.5
326.722	402.81
326.797	377.55
326.872	398.21
326.947	434.95
327.021	372.96
327.096	467.09
327.171	402.81
327.245	423.47
327.32	437.25
327.395	386.73
327.47	375.25
327.544	480.87
327.619	416.58
327.693	515.31
327.768	402.81
327.843	421.17
327.917	441.84
327.992	473.98
328.066	425.77
328.141	425.77
328.215	379.85
328.29	471.69
328.364	409.69
328.439	409.69
328.513	446.43
328.588	441.84
328.662	395.92
328.737	386.73
328.811	414.29
328.886	432.65
328.96	356.89
329.035	434.95
329.109	471.69
329.183	471.69
329.258	338.52
329.332	379.85
329.406	469.39
329.481	506.13
329.555	464.8
329.629	430.36
329.704	359.18
329.778	430.36
329.852	453.32
329.926	363.77
330.001	389.03
330.075	434.95
330.149	462.5
330.223	386.73
330.297	350
330.372	423.47
330.446	529.09
330.52	437.25
330.594	425.77
330.668	402.81
330.742	503.83
330.816	350
330.89	377.55
330.964	409.69
331.038	421.17
331.113	398.21
331.187	444.13
331.261	480.87
331.335	391.33
331.409	411.99
331.483	359.18
331.557	460.21
331.63	441.84
331.704	363.77
331.778	499.24
331.852	393.62
331.926	421.17
332	448.73
332.074	423.47
332.148	377.55
332.222	439.54
332.295	402.81
332.369	430.36
332.443	430.36
332.517	453.32
332.591	411.99
332.665	370.66
332.738	467.09
332.812	462.5
332.886	368.37
332.959	407.4
333.033	377.55
333.107	457.91
333.181	451.02
333.254	444.13
333.328	423.47
333.402	384.44
333.475	453.32
333.549	476.28
333.622	451.02
333.696	434.95
333.77	407.4
333.843	455.61
333.917	453.32
333.99	480.87
334.064	437.25
334.137	405.1
334.211	428.06
334.284	469.39
334.358	451.02
334.431	460.21
334.505	411.99
334.578	460.21
334.652	375.25
334.725	471.69
334.799	421.17
334.872	448.73
334.945	379.85
335.019	389.03
335.092	437.25
335.165	453.32
335.239	416.58
335.312	464.8
335.385	469.39
335.459	441.84
335.532	464.8
335.605	437.25
335.678	446.43
335.752	439.54
335.825	407.4
335.898	395.92
335.971	492.35
336.045	441.84
336.118	379.85
336.191	418.88
336.264	471.69
336.337	460.21
336.41	444.13
336.483	455.61
336.557	400.51
336.63	423.47
336.703	439.54
336.776	437.25
336.849	455.61
336.922	464.8
336.995	467.09
337.068	421.17
337.141	446.43
337.214	414.29
337.287	506.13
337.36	439.54
337.433	425.77
337.506	487.76
337.579	411.99
337.652	393.62
337.725	457.91
337.797	372.96
337.87	457.91
337.943	439.54
338.016	370.66
338.089	444.13
338.162	432.65
338.235	393.62
338.307	476.28
338.38	455.61
338.453	515.31
338.526	467.09
338.598	430.36
338.671	457.91
338.744	437.25
338.817	370.66
338.889	471.69
338.962	421.17
339.035	448.73
339.107	418.88
339.18	391.33
339.253	460.21
339.325	425.77
339.398	439.54
339.47	464.8
339.543	418.88
339.616	453.32
339.688	496.94
339.761	444.13
339.833	414.29
339.906	478.57
339.978	460.21
340.051	453.32
340.123	446.43
340.196	375.25
340.268	398.21
340.341	467.09
340.413	451.02
340.485	423.47
340.558	439.54
340.63	405.1
340.703	416.58
340.775	393.62
340.847	462.5
340.92	453.32
340.992	448.73
341.064	469.39
341.137	499.24
341.209	496.94
341.281	405.1
341.354	407.4
341.426	448.73
341.498	428.06
341.57	448.73
341.643	430.36
341.715	506.13
341.787	416.58
341.859	437.25
341.931	430.36
342.003	462.5
342.076	503.83
342.148	372.96
342.22	446.43
342.292	485.46
342.364	464.8
342.436	421.17
342.508	446.43
342.58	428.06
342.652	448.73
342.724	455.61
342.796	471.69
342.868	455.61
342.94	446.43
343.012	434.95
343.084	441.84
343.156	414.29
343.228	510.72
343.3	469.39
343.372	441.84
343.444	549.75
343.516	453.32
343.588	538.27
343.66	522.2
343.731	411.99
343.803	453.32
343.875	455.61
343.947	418.88
344.019	494.65
344.09	494.65
344.162	492.35
344.234	464.8
344.306	501.53
344.377	434.95
344.449	485.46
344.521	473.98
344.593	464.8
344.664	432.65
344.736	423.47
344.808	471.69
344.879	483.17
344.951	428.06
345.023	485.46
345.094	421.17
345.166	524.49
345.237	492.35
345.309	405.1
345.38	425.77
345.452	393.62
345.524	457.91
345.595	451.02
345.667	448.73
345.738	492.35
345.81	503.83
345.881	393.62
345.953	471.69
346.024	540.57
346.095	510.72
346.167	480.87
346.238	444.13
346.31	451.02
346.381	471.69
346.452	441.84
346.524	405.1
346.595	478.57
346.666	457.91
346.738	451.02
346.809	448.73
346.88	471.69
346.952	467.09
347.023	513.01
347.094	480.87
347.165	476.28
347.237	492.35
347.308	522.2
347.379	471.69
347.45	501.53
347.521	398.21
347.593	418.88
347.664	476.28
347.735	492.35
347.806	515.31
347.877	469.39
347.948	492.35
348.019	503.83
348.09	437.25
348.161	503.83
348.233	508.42
348.304	464.8
348.375	453.32
348.446	561.23
348.517	508.42
348.588	529.09
348.659	473.98
348.73	510.72
348.801	421.17
348.871	506.13
348.942	533.68
349.013	473.98
349.084	478.57
349.155	490.05
349.226	494.65
349.297	471.69
349.368	451.02
349.439	407.4
349.509	529.09
349.58	453.32
349.651	478.57
349.722	549.75
349.793	515.31
349.863	483.17
349.934	496.94
350.005	513.01
350.076	480.87
350.146	535.97
350.217	469.39
350.288	545.16
350.358	485.46
350.429	542.86
350.5	451.02
350.57	485.46
350.641	575.01
350.711	494.65
350.782	513.01
350.853	577.3
350.923	503.83
350.994	561.23
351.064	490.05
351.135	513.01
351.205	586.49
351.276	503.83
351.346	595.67
351.417	616.34
351.487	535.97
351.558	600.26
351.628	526.79
351.699	531.38
351.769	609.45
351.84	556.64
351.91	542.86
351.98	556.64
352.051	577.3
352.121	556.64
352.191	653.07
352.262	572.71
352.332	740.32
352.402	623.22
352.473	703.58
352.543	701.29
352.613	735.73
352.683	731.14
352.754	701.29
352.824	735.73
352.894	758.69
352.964	738.02
353.035	809.2
353.105	790.83
353.175	834.46
353.245	891.86
353.315	896.45
353.385	866.6
353.455	857.42
353.526	912.52
353.596	889.56
353.666	992.88
353.736	1057.17
353.806	1029.62
353.876	1070.94
353.946	1013.54
354.016	1132.94
354.086	1105.39
354.156	1197.23
354.226	1171.97
354.296	1272.99
354.366	1383.2
354.436	1272.99
354.506	1383.2
354.576	1447.49
354.645	1479.63
354.715	1599.03
354.785	1658.72
354.855	1617.4
354.925	1801.08
354.995	1817.15
355.065	1840.11
355.134	1883.73
355.204	1964.09
355.274	2074.3
355.344	2207.47
355.414	2205.17
355.483	2285.53
355.553	2423.29
355.623	2492.17
355.693	2604.68
355.762	2740.14
355.832	2831.98
355.902	2776.88
355.971	2962.86
356.041	3091.43
356.111	3128.17
356.18	3288.89
356.25	3233.79
356.319	3440.43
356.389	3679.21
356.459	3743.5
356.528	3846.82
356.598	3966.21
356.667	4129.23
356.737	4312.91
356.806	4188.93
356.876	4471.34
356.945	4558.58
357.015	4891.5
357.084	4932.83
357.154	5086.67
357.223	5059.11
357.292	5355.3
357.362	5571.12
357.431	5780.06
357.501	5927.01
357.57	6184.16
357.639	6349.47
357.709	6576.78
357.778	6585.96
357.847	6829.34
357.917	7210.47
357.986	7339.05
358.055	7456.15
358.124	7740.85
358.194	8014.08
358.263	8172.5
358.332	8443.43
358.401	8907.23
358.471	8957.74
358.54	9111.57
358.609	9416.94
358.678	9910.58
358.747	9917.47
358.816	10319.27
358.886	10560.35
358.955	10939.19
359.024	11184.87
359.093	11501.72
359.162	11889.74
359.231	12094.09
359.3	12222.66
359.369	12493.59
359.438	12753.04
359.507	13203.06
359.576	13462.51
359.645	14008.96
359.714	14318.92
359.783	14764.35
359.852	15072.01
359.921	15336.05
359.99	15522.03
360.059	16116.7
360.128	16339.41
360.197	16805.5
360.266	17425.42
360.334	17655.02
360.403	17994.83
360.472	18463.22
360.541	18605.57
360.61	19204.83
360.679	19627.29
360.747	19971.7
360.816	20784.48
360.885	20887.8
360.954	21250.57
361.022	22067.95
361.091	22474.35
361.16	22568.48
361.228	23108.04
361.297	23316.98
361.366	24336.41
361.434	24680.81
361.503	24981.59
361.572	26021.68
361.64	25948.21
361.709	26480.88
361.778	26405.11
361.846	27100.8
361.915	27828.64
361.983	28329.17
362.052	28829.7
362.12	29213.13
362.189	29819.28
362.257	30719.32
362.326	31167.04
362.394	31013.21
362.463	31610.17
362.531	32404.59
362.6	32960.22
362.668	33394.17
362.737	33589.33
362.805	34131.19
362.873	34624.83
362.942	35228.68
363.01	35508.79
363.079	35993.25
363.147	37329.53
363.215	37442.03
363.284	37763.47
363.352	38243.34
363.42	38847.19
363.488	38831.12
363.557	39687.53
363.625	40008.97
363.693	39765.59
363.761	40725.33
363.83	41620.77
363.898	41976.65
363.966	41710.31
364.034	42874.39
364.102	43087.92
364.171	43471.35
364.239	43932.85
364.307	44488.49
364.375	44878.81
364.443	45324.23
364.511	45852.31
364.579	46192.12
364.647	46681.17
364.715	46747.76
364.783	47585.8
364.851	47243.7
364.919	48084.04
364.987	48706.25
365.055	48628.19
365.123	48988.66
365.191	49514.45
365.259	49434.09
365.327	49824.41
365.395	50106.82
365.463	50313.46
365.531	50531.58
365.599	50848.43
365.667	50882.87
365.735	51314.52
365.802	51468.35
365.87	51635.96
365.938	51707.14
366.006	51900
366.074	52051.54
366.142	52407.42
366.209	52331.65
366.277	52554.37
366.345	52581.92
366.413	52671.46
366.48	52905.66
366.548	53087.04
366.616	53075.56
366.683	53245.47
366.751	53514.1
366.819	53511.8
366.886	53635.79
366.954	53895.24
367.022	53833.24
367.089	53817.17
367.157	53787.32
367.224	54028.4
367.292	53755.18
367.36	54246.53
367.427	54368.21
367.495	54062.84
367.562	53867.68
367.63	53982.48
367.697	53961.82
367.765	54097.29
367.832	54301.63
367.9	53888.35
367.967	54033
368.034	53814.88
368.102	54016.92
368.169	54255.71
368.237	53957.23
368.304	53865.39
368.371	53690.89
368.439	53700.08
368.506	53658.75
368.573	53546.24
368.641	53582.98
368.708	53302.87
368.775	53454.4
368.843	53346.49
368.91	52988.31
368.977	53286.79
369.044	53087.04
369.112	52905.66
369.179	53043.42
369.246	52657.69
369.313	52742.64
369.38	52501.56
369.448	52336.25
369.515	52125.01
369.582	52161.75
369.649	52177.82
369.716	52111.24
369.783	51835.72
369.85	51541.83
369.917	51482.13
369.984	51119.36
370.052	51218.09
370.119	51135.43
370.186	50878.28
370.253	51123.95
370.32	50102.23
370.387	50363.97
370.454	50253.77
370.521	49992.02
370.587	49985.13
370.654	49677.47
370.721	49523.63
370.788	49124.13
370.855	48956.52
370.922	49121.83
370.989	48968
371.056	48616.71
371.123	48100.11
371.189	47987.6
371.256	47712.08
371.323	47939.39
371.39	47611.06
371.457	47064.61
371.523	47218.44
371.59	47030.17
371.657	47328.65
371.724	46956.7
371.79	46619.18
371.857	45852.31
371.924	46093.4
371.991	45806.39
372.057	45220.91
372.124	45455.11
372.191	45751.29
372.257	45184.18
372.324	44929.32
372.39	44738.75
372.457	44392.05
372.524	44584.92
372.59	44141.79
372.657	44242.81
372.723	43230.27
372.79	43312.93
372.856	43115.47
372.923	42908.83
372.989	42422.08
373.056	42626.42
373.122	42323.35
373.189	42128.19
373.255	42130.48
373.322	41579.44
373.388	41609.29
373.454	41292.44
373.521	40876.86
373.587	40732.21
373.654	40700.07
373.72	40617.41
373.786	39949.27
373.853	40100.81
373.919	39682.94
373.985	39207.66
374.052	39322.46
374.118	39265.06
374.184	39097.45
374.25	38792.09
374.317	38640.55
374.383	38404.06
374.449	37816.28
374.515	37510.91
374.581	37249.17
374.648	37412.18
374.714	36998.9
374.78	36631.54
374.846	36268.77
374.912	36376.68
374.978	35947.33
375.044	35754.46
375.11	35423.84
375.177	35274.6
375.243	34911.83
375.309	35012.85
375.375	34815.4
375.441	34158.74
375.507	34314.87
375.573	33981.95
375.639	33637.54
375.705	33327.58
375.771	33389.58
375.837	32833.94
375.903	32703.07
375.968	32333.41
376.034	31986.71
376.1	31773.18
376.166	31688.23
376.232	31362.2
376.298	31162.45
376.364	30618.29
376.43	30289.96
376.495	30358.84
376.561	30237.15
376.627	29869.79
376.693	29350.89
376.759	28928.43
376.824	29155.73
376.89	28889.4
376.956	28632.24
377.022	28418.71
377.087	28253.4
377.153	27847.01
377.219	27984.77
377.284	27644.96
377.35	27015.85
377.416	26841.36
377.481	26747.22
377.547	25971.17
377.613	25929.84
377.678	26069.9
377.744	25449.97
377.809	25082.61
377.875	25038.99
377.94	24926.48
378.006	24467.28
378.071	24428.25
378.137	23959.86
378.202	24017.26
378.268	23615.46
378.333	23509.85
378.399	23454.74
378.464	22972.58
378.53	23165.44
378.595	22437.61
378.661	22352.66
378.726	22077.14
378.791	21803.91
378.857	21620.23
378.922	21461.81
378.987	21324.05
379.053	20988.83
379.118	20851.07
379.183	20373.5
379.249	20277.06
379.314	20437.79
379.379	20026.8
379.444	19925.78
379.51	19608.93
379.575	19675.51
379.64	19218.6
379.705	19076.25
379.771	19071.66
379.836	18628.53
379.901	18557.35
379.966	18589.5
380.031	18049.94
380.096	17909.88
380.161	17854.77
380.227	17767.53
380.292	17774.41
380.357	17253.22
380.422	17296.84
380.487	17053.47
380.552	16982.29
380.617	16872.08
380.682	16541.46
380.747	16380.74
380.812	16268.23
380.877	15942.2
380.942	15933.01
381.007	15900.87
381.072	15884.8
381.137	15636.83
381.202	15533.51
381.266	15248.8
381.331	15310.8
381.396	14906.7
381.461	14993.95
381.526	14842.41
381.591	14507.19
381.656	14422.24
381.72	14261.52
381.785	14181.16
381.85	13990.59
381.915	13795.43
381.979	13813.8
382.044	13756.4
382.109	13696.7
382.174	13492.36
382.238	13343.12
382.303	13099.74
382.368	13141.07
382.432	13147.96
382.497	12792.07
382.562	12654.31
382.626	12707.12
382.691	12548.7
382.756	12096.38
382.82	12231.85
382.885	12080.31
382.949	11963.21
383.014	11931.07
383.078	11593.56
383.143	11621.11
383.208	11389.21
383.272	11384.62
383.337	11253.75
383.401	11164.2
383.465	11067.77
383.53	11111.39
383.594	10640.71
383.659	10842.76
383.723	10815.21
383.788	10564.94
383.852	10440.96
383.916	10103.45
383.981	10475.4
384.045	10209.06
384.109	10075.89
384.174	9958.8
384.238	9834.81
384.302	9832.52
384.367	9754.45
384.431	9692.46
384.495	9382.5
384.56	9398.57
384.624	9419.24
384.688	9260.81
384.752	9097.79
384.816	8817.68
384.881	8909.52
384.945	8955.44
385.009	8923.3
385.073	8679.92
385.137	8861.31
385.201	8461.8
385.265	8466.39
385.33	8376.85
385.394	8388.33
385.458	8328.63
385.522	8004.89
385.586	8094.44
385.65	7832.69
385.714	7972.75
385.778	7841.88
385.842	7642.12
385.906	7720.19
385.97	7621.46
386.034	7671.97
386.098	7460.74
386.162	7552.58
386.226	7137
386.29	7134.71
386.354	7146.19
386.417	7118.63
386.481	6801.78
386.545	6872.96
386.609	6799.49
386.673	6680.1
386.737	6551.52
386.8	6645.66
386.864	6581.37
386.928	6521.67
386.992	6461.98
387.056	6351.77
387.119	6328.81
387.183	6200.23
387.247	6202.53
387.31	6080.84
387.374	6085.43
387.438	5848.94
387.502	6037.21
387.565	5906.34
387.629	5775.47
387.692	5667.56
387.756	5646.89
387.82	5561.94
387.883	5527.5
387.947	5600.97
388.01	5582.6
388.074	5449.44
388.138	5378.26
388.201	5265.75
388.265	5219.83
388.328	5178.51
388.392	5139.47
388.455	5075.19
388.519	5020.08
388.582	4960.39
388.645	4907.58
388.709	4717.01
388.772	4813.44
388.836	4712.42
388.899	4700.94
388.962	4574.66
389.026	4524.14
389.089	4581.54
389.153	4531.03
389.216	4351.94
389.279	4365.72
389.343	4450.67
389.406	4269.29
389.469	4317.5
389.532	4021.32
389.596	4097.09
389.659	4285.36
389.722	4021.32
389.785	4053.46
389.848	4090.2
389.912	4094.79
389.975	4032.8
390.038	3970.8
390.101	3826.16
390.164	3872.08
390.227	3736.61
390.291	3819.27
390.354	3670.03
390.417	3665.44
390.48	3697.58
390.543	3571.3
390.606	3617.22
390.669	3573.6
390.732	3520.79
390.795	3458.79
390.858	3360.07
390.921	3415.17
390.984	3401.39
391.047	3270.52
391.11	3293.48
391.173	3268.23
391.236	3254.45
391.299	3164.91
391.362	3203.94
391.424	3054.7
391.487	3084.55
391.55	3169.5
391.613	3132.76
391.676	3121.28
391.739	2962.86
391.802	2923.82
391.864	3056.99
391.927	2955.97
391.99	2730.96
392.053	2866.42
392.115	2866.42
392.178	2763.1
392.241	2767.7
392.304	2673.56
392.366	2685.04
392.429	2795.25
392.492	2625.34
392.554	2701.11
392.617	2597.79
392.68	2512.84
392.742	2476.1
392.805	2446.25
392.867	2542.69
392.93	2519.73
392.992	2590.9
393.055	2503.65
393.118	2489.88
393.18	2432.48
393.243	2365.89
393.305	2377.37
393.368	2365.89
393.43	2345.23
393.493	2271.76
393.555	2315.38
393.618	2193.69
393.68	2163.85
393.742	2223.54
393.805	2255.69
393.867	2262.57
393.93	2156.96
393.992	2150.07
394.054	2212.06
394.117	2177.62
394.179	2131.7
394.241	2037.56
394.304	2042.16
394.366	2037.56
394.428	2092.67
394.49	2046.75
394.553	2005.42
394.615	2062.82
394.677	1931.95
394.739	1899.8
394.802	1996.24
394.864	1929.65
394.926	1810.26
394.988	1929.65
395.05	1849.29
395.112	1897.51
395.174	1817.15
395.237	1748.27
395.299	1775.82
395.361	1709.24
395.423	1810.26
395.485	1830.92
395.547	1741.38
395.609	1704.64
395.671	1661.02
395.733	1711.53
395.795	1704.64
395.857	1690.87
395.919	1608.21
395.981	1615.1
396.043	1599.03
396.105	1617.4
396.167	1509.48
396.229	1559.99
396.291	1573.77
396.352	1541.63
396.414	1514.07
396.476	1516.37
396.538	1555.4
396.6	1539.33
396.662	1436.01
396.724	1491.11
396.785	1477.34
396.847	1447.49
396.909	1525.55
396.971	1424.53
397.032	1461.27
397.094	1481.93
397.156	1410.75
397.218	1454.38
397.279	1458.97
397.341	1385.5
397.403	1346.47
397.464	1346.47
397.526	1442.9
397.588	1353.35
397.649	1339.58
397.711	1204.11
397.772	1355.65
397.834	1247.74
397.896	1314.32
397.957	1339.58
398.019	1266.11
398.08	1309.73
398.142	1284.47
398.203	1215.59
398.265	1192.63
398.326	1289.07
398.388	1213.3
398.449	1174.27
398.511	1268.4
398.572	1192.63
398.633	1295.95
398.695	1238.55
398.756	1197.23
398.818	1119.16
398.879	1123.75
398.94	1105.39
399.002	1137.53
399.063	1089.31
399.124	1059.46
399.186	1043.39
399.247	1126.05
399.308	1100.79
399.369	1025.02
399.431	1066.35
399.492	1043.39
399.553	1038.8
399.614	1054.87
399.676	1130.64
399.737	972.22
399.798	1006.66
399.859	1036.5
399.92	958.44
399.981	1068.65
400.042	1031.91
400.104	1011.25
400.165	958.44
400.226	946.96
400.287	1043.39
400.348	979.1
400.409	930.89
400.47	951.55
400.531	944.66
400.592	969.92
400.653	928.59
400.714	896.45
400.775	919.41
400.836	926.3
400.897	873.49
400.958	921.7
401.019	891.86
401.08	912.52
401.141	889.56
401.201	875.78
401.262	836.75
401.323	820.68
401.384	855.12
401.445	834.46
401.506	850.53
401.567	926.3
401.627	891.86
401.688	857.42
401.749	862.01
401.81	868.9
401.87	843.64
401.931	820.68
401.992	818.38
402.053	834.46
402.113	809.2
402.174	811.5
402.235	827.57
402.295	935.48
402.356	774.76
402.417	788.54
402.477	873.49
402.538	834.46
402.598	806.9
402.659	790.83
402.719	724.25
402.78	793.13
402.841	811.5
402.901	793.13
402.962	710.47
403.022	774.76
403.083	777.06
403.143	698.99
403.204	744.91
403.264	735.73
403.324	735.73
403.385	804.61
403.445	696.7
403.506	751.8
403.566	747.21
403.627	719.66
403.687	694.4
403.747	793.13
403.808	673.74
403.868	680.62
403.928	731.14
403.989	657.66
404.049	685.22
404.109	671.44
404.169	770.17
404.23	790.83
404.29	666.85
404.35	703.58
404.41	710.47
404.47	705.88
404.531	623.22
404.591	643.89
404.651	657.66
404.711	634.7
404.771	627.82
404.831	682.92
404.892	664.55
404.952	662.26
405.012	632.41
405.072	676.03
405.132	666.85
405.192	653.07
405.252	719.66
405.312	618.63
405.372	689.81
405.432	662.26
405.492	623.22
405.552	680.62
405.612	634.7
405.672	586.49
405.732	687.51
405.792	623.22
405.852	632.41
405.912	641.59
405.971	595.67
406.031	637
406.091	641.59
406.151	637
406.211	669.14
406.271	623.22
406.33	597.97
406.39	664.55
406.45	607.15
406.51	572.71
406.57	572.71
406.629	563.53
406.689	483.17
406.749	604.86
406.808	653.07
406.868	593.37
406.928	602.56
406.988	565.82
407.047	591.08
407.107	581.89
407.166	602.56
407.226	547.45
407.286	620.93
407.345	561.23
407.405	584.19
407.464	478.57
407.524	579.6
407.584	620.93
407.643	595.67
407.703	579.6
407.762	517.61
407.822	513.01
407.881	547.45
407.941	632.41
408	591.08
408.059	570.41
408.119	549.75
408.178	565.82
408.238	549.75
408.297	607.15
408.356	545.16
408.416	499.24
408.475	575.01
408.535	572.71
408.594	545.16
408.653	496.94
408.712	575.01
408.772	588.78
408.831	575.01
408.89	565.82
408.95	545.16
409.009	492.35
409.068	526.79
409.127	556.64
409.186	524.49
409.246	533.68
409.305	524.49
409.364	524.49
409.423	492.35
409.482	526.79
409.541	517.61
409.6	499.24
409.66	545.16
409.719	561.23
409.778	506.13
409.837	510.72
409.896	501.53
409.955	441.84
410.014	572.71
410.073	467.09
410.132	469.39
410.191	400.51
410.25	522.2
410.309	483.17
410.368	471.69
410.427	499.24
410.486	524.49
410.545	522.2
410.603	506.13
410.662	464.8
410.721	524.49
410.78	476.28
410.839	503.83
410.898	462.5
410.957	556.64
411.015	522.2
411.074	513.01
411.133	490.05
411.192	515.31
411.25	483.17
411.309	453.32
411.368	485.46
411.427	483.17
411.485	480.87
411.544	409.69
411.603	515.31
411.661	499.24
411.72	487.76
411.779	441.84
411.837	506.13
411.896	494.65
411.955	487.76
412.013	453.32
412.072	462.5
412.13	467.09
412.189	457.91
412.247	494.65
412.306	501.53
412.364	478.57
412.423	480.87
412.481	490.05
412.54	503.83
412.598	538.27
412.657	508.42
412.715	483.17
412.774	428.06
412.832	467.09
412.891	460.21
412.949	455.61
413.007	478.57
413.066	492.35
413.124	494.65
413.182	508.42
413.241	519.9
413.299	421.17
413.357	478.57
413.416	453.32
413.474	460.21
413.532	441.84
413.59	467.09
413.649	471.69
413.707	451.02
413.765	471.69
413.823	444.13
413.881	434.95
413.94	400.51
413.998	430.36
414.056	428.06
414.114	524.49
414.172	395.92
414.23	428.06
414.288	453.32
414.347	423.47
414.405	467.09
414.463	448.73
414.521	501.53
414.579	492.35
414.637	421.17
414.695	471.69
414.753	499.24
414.811	464.8
414.869	414.29
414.927	411.99
414.985	428.06
415.043	423.47
415.101	510.72
415.158	439.54
415.216	480.87
415.274	460.21
415.332	526.79
415.39	515.31
415.448	398.21
415.506	400.51
415.563	375.25
415.621	428.06
415.679	430.36
415.737	423.47
415.795	469.39
415.852	384.44
415.91	483.17
415.968	453.32
416.026	444.13
416.083	467.09
416.141	421.17
416.199	487.76
416.256	400.51
416.314	400.51
416.372	467.09
416.429	421.17
416.487	430.36
416.544	405.1
416.602	469.39
416.66	457.91
416.717	467.09
416.775	425.77
416.832	453.32
416.89	398.21
416.947	476.28
417.005	444.13
417.062	423.47
417.12	455.61
417.177	395.92
417.235	411.99
417.292	405.1
417.35	439.54
417.407	377.55
417.464	439.54
417.522	384.44
417.579	467.09
417.637	379.85
417.694	411.99
417.751	384.44
417.809	425.77
417.866	425.77
417.923	391.33
417.981	407.4
418.038	457.91
418.095	451.02
418.152	441.84
418.21	451.02
418.267	400.51
418.324	411.99
418.381	421.17
418.438	411.99
418.496	444.13
418.553	451.02
418.61	425.77
418.667	389.03
418.724	462.5
418.781	446.43
418.838	416.58
418.895	432.65
418.952	428.06
419.01	409.69
419.067	418.88
419.124	395.92
419.181	457.91
419.238	418.88
419.295	478.57
419.352	395.92
419.409	393.62
419.466	389.03
419.523	432.65
419.579	471.69
419.636	462.5
419.693	402.81
419.75	359.18
419.807	398.21
419.864	395.92
419.921	345.41
419.978	393.62
420.034	389.03
420.091	400.51
420.148	356.89
420.205	363.77
420.262	389.03
420.318	423.47
420.375	414.29
420.432	393.62
420.489	418.88
420.545	446.43
420.602	471.69
420.659	402.81
420.715	411.99
420.772	400.51
420.829	441.84
420.885	400.51
420.942	416.58
420.999	421.17
421.055	428.06
421.112	398.21
421.168	496.94
421.225	432.65
421.282	439.54
421.338	428.06
421.395	409.69
421.451	444.13
421.508	370.66
421.564	508.42
421.621	423.47
421.677	405.1
421.734	395.92
421.79	395.92
421.846	432.65
421.903	430.36
421.959	421.17
422.016	407.4
422.072	398.21
422.128	421.17
422.185	361.48
422.241	352.29
422.297	428.06
422.354	418.88
422.41	444.13
422.466	441.84
422.523	423.47
422.579	386.73
422.635	395.92
422.691	478.57
422.748	379.85
422.804	453.32
422.86	439.54
422.916	439.54
422.972	338.52
423.029	382.14
423.085	428.06
423.141	352.29
423.197	379.85
423.253	430.36
423.309	377.55
423.365	400.51
423.421	409.69
423.477	409.69
423.533	411.99
423.589	398.21
423.645	363.77
423.701	441.84
423.757	377.55
423.813	402.81
423.869	327.04
423.925	437.25
423.981	320.15
424.037	375.25
424.093	434.95
424.149	386.73
424.205	386.73
424.261	366.07
424.317	421.17
424.373	377.55
424.428	444.13
424.484	375.25
424.54	393.62
424.596	425.77
424.652	421.17
424.708	487.76
424.763	366.07
424.819	361.48
424.875	400.51
424.931	416.58
424.986	393.62
425.042	366.07
425.098	368.37
425.153	414.29
425.209	372.96
425.265	375.25
425.32	416.58
425.376	398.21
425.432	462.5
425.487	377.55
425.543	379.85
425.598	363.77
425.654	368.37
425.709	372.96
425.765	389.03
425.82	446.43
425.876	409.69
425.932	370.66
425.987	386.73
426.042	368.37
426.098	432.65
426.153	414.29
426.209	340.81
426.264	375.25
426.32	457.91
426.375	370.66
426.43	430.36
426.486	361.48
426.541	384.44
426.597	398.21
426.652	423.47
426.707	430.36
426.763	409.69
426.818	444.13
426.873	418.88
426.928	425.77
426.984	425.77
427.039	377.55
427.094	354.59
427.149	400.51
427.205	368.37
427.26	451.02
427.315	375.25
427.37	345.41
427.425	363.77
427.48	398.21
427.536	361.48
427.591	393.62
427.646	354.59
427.701	395.92
427.756	441.84
427.811	414.29
427.866	347.7
427.921	483.17
427.976	379.85
428.031	393.62
428.086	384.44
428.141	425.77
428.196	363.77
428.251	395.92
428.306	361.48
428.361	425.77
428.416	455.61
428.471	414.29
428.526	384.44
428.581	331.63
428.636	423.47
428.691	405.1
428.745	425.77
428.8	393.62
428.855	343.11
428.91	402.81
428.965	425.77
429.02	405.1
429.074	398.21
429.129	386.73
429.184	384.44
429.239	382.14
429.293	356.89
429.348	400.51
429.403	430.36
429.457	434.95
429.512	382.14
429.567	416.58
429.621	414.29
429.676	366.07
429.731	377.55
429.785	460.21
429.84	409.69
429.895	324.74
429.949	421.17
430.004	407.4
430.058	356.89
430.113	368.37
430.167	386.73
430.222	384.44
430.276	414.29
430.331	393.62
430.385	352.29
430.44	416.58
430.494	434.95
430.549	366.07
430.603	393.62
430.657	395.92
430.712	363.77
430.766	377.55
430.821	448.73
430.875	402.81
430.929	421.17
430.984	400.51
431.038	356.89
431.092	448.73
431.147	398.21
431.201	389.03
431.255	414.29
431.309	416.58
431.364	384.44
431.418	455.61
431.472	391.33
431.526	499.24
431.581	359.18
431.635	411.99
431.689	395.92
431.743	395.92
431.797	395.92
431.851	366.07
431.906	338.52
431.96	398.21
432.014	361.48
432.068	393.62
432.122	370.66
432.176	393.62
432.23	437.25
432.284	428.06
432.338	379.85
432.392	395.92
432.446	370.66
432.5	418.88
432.554	359.18
432.608	359.18
432.662	434.95
432.716	395.92
432.77	405.1
432.824	347.7
432.878	467.09
432.931	400.51
432.985	444.13
433.039	425.77
433.093	352.29
433.147	430.36
433.201	359.18
433.254	391.33
433.308	409.69
433.362	451.02
433.416	439.54
433.47	416.58
433.523	441.84
433.577	377.55
433.631	416.58
433.684	425.77
433.738	345.41
433.792	402.81
433.846	370.66
433.899	363.77
433.953	354.59
434.006	405.1
434.06	416.58
434.114	395.92
434.167	395.92
434.221	395.92
