Data from FLMS155811_12-31-54-229.txt Node
Date: Mon Mar 23 12:31:54 MDT 2020
User: ECEn Student
Spectrometer: FLMS15581
Trigger mode: 0
Integration Time (sec): 1.000000E-1
Scans to average: 1
Electric dark correction enabled: true
Nonlinearity correction enabled: false
Boxcar width: 0
XAxis mode: Wavelengths
Number of Pixels in Spectrum: 2048
>>>>>Begin Spectral Data<<<<<
298.026	27.27
298.106	27.27
298.185	27.27
298.265	-46.21
298.344	-105.9
298.424	-92.13
298.503	-55.39
298.583	-64.58
298.662	-0.29
298.741	-80.65
298.821	-41.62
298.9	-59.98
298.98	-73.76
299.059	-0.29
299.138	47.93
299.217	38.75
299.297	20.38
299.376	27.27
299.455	82.37
299.535	107.63
299.614	144.36
299.693	121.4
299.772	206.35
299.852	128.29
299.931	238.5
300.01	247.68
300.089	213.24
300.168	236.2
300.247	229.31
300.327	224.72
300.406	229.31
300.485	360.19
300.564	289.01
300.643	289.01
300.722	360.19
300.801	371.67
300.88	346.41
300.959	433.66
301.038	396.92
301.117	396.92
301.196	378.55
301.275	380.85
301.354	419.88
301.433	424.47
301.512	378.55
301.591	419.88
301.67	360.19
301.749	417.59
301.828	424.47
301.907	401.51
301.985	412.99
302.064	401.51
302.143	392.33
302.222	433.66
302.301	403.81
302.38	390.03
302.458	440.55
302.537	376.26
302.616	341.82
302.695	376.26
302.773	364.78
302.852	344.11
302.931	385.44
303.01	309.67
303.088	353.3
303.167	403.81
303.246	383.15
303.324	367.07
303.403	339.52
303.481	429.07
303.56	307.38
303.639	289.01
303.717	325.75
303.796	390.03
303.874	376.26
303.953	332.63
304.032	410.7
304.11	323.45
304.189	323.45
304.267	394.63
304.346	291.31
304.424	394.63
304.502	355.59
304.581	328.04
304.659	357.89
304.738	376.26
304.816	284.42
304.895	348.71
304.973	339.52
305.051	362.48
305.13	321.15
305.208	385.44
305.286	316.56
305.365	362.48
305.443	351
305.521	376.26
305.6	307.38
305.678	337.23
305.756	369.37
305.834	341.82
305.913	376.26
305.991	383.15
306.069	353.3
306.147	314.27
306.225	337.23
306.304	357.89
306.382	348.71
306.46	373.96
306.538	328.04
306.616	357.89
306.694	403.81
306.772	445.14
306.85	348.71
306.929	330.34
307.007	330.34
307.085	289.01
307.163	378.55
307.241	325.75
307.319	394.63
307.397	307.38
307.475	424.47
307.553	447.43
307.631	337.23
307.709	371.67
307.786	364.78
307.864	351
307.942	330.34
308.02	380.85
308.098	378.55
308.176	385.44
308.254	373.96
308.332	367.07
308.409	373.96
308.487	369.37
308.565	431.36
308.643	348.71
308.721	408.4
308.798	445.14
308.876	424.47
308.954	399.22
309.032	371.67
309.109	364.78
309.187	300.49
309.265	355.59
309.342	351
309.42	364.78
309.498	422.18
309.575	408.4
309.653	399.22
309.731	360.19
309.808	376.26
309.886	394.63
309.963	369.37
310.041	360.19
310.119	337.23
310.196	380.85
310.274	403.81
310.351	300.49
310.429	337.23
310.506	408.4
310.584	314.27
310.661	330.34
310.738	321.15
310.816	445.14
310.893	369.37
310.971	387.74
311.048	463.51
311.126	330.34
311.203	383.15
311.28	300.49
311.358	369.37
311.435	323.45
311.512	362.48
311.59	399.22
311.667	376.26
311.744	442.84
311.821	410.7
311.899	355.59
311.976	369.37
312.053	367.07
312.13	341.82
312.208	390.03
312.285	408.4
312.362	373.96
312.439	279.83
312.516	364.78
312.593	387.74
312.671	387.74
312.748	339.52
312.825	332.63
312.902	325.75
312.979	360.19
313.056	387.74
313.133	390.03
313.21	387.74
313.287	383.15
313.364	415.29
313.441	373.96
313.518	378.55
313.595	383.15
313.672	403.81
313.749	392.33
313.826	334.93
313.903	373.96
313.98	454.32
314.057	362.48
314.134	367.07
314.211	369.37
314.287	353.3
314.364	401.51
314.441	410.7
314.518	385.44
314.595	346.41
314.672	341.82
314.748	376.26
314.825	367.07
314.902	376.26
314.979	435.95
315.055	346.41
315.132	371.67
315.209	325.75
315.286	371.67
315.362	438.25
315.439	371.67
315.516	378.55
315.592	438.25
315.669	387.74
315.746	440.55
315.822	447.43
315.899	401.51
315.975	376.26
316.052	383.15
316.128	362.48
316.205	408.4
316.282	357.89
316.358	399.22
316.435	468.1
316.511	364.78
316.588	369.37
316.664	417.59
316.741	364.78
316.817	362.48
316.893	394.63
316.97	479.58
317.046	442.84
317.123	440.55
317.199	373.96
317.275	357.89
317.352	355.59
317.428	378.55
317.504	449.73
317.581	408.4
317.657	367.07
317.733	357.89
317.81	396.92
317.886	380.85
317.962	383.15
318.038	385.44
318.115	491.06
318.191	328.04
318.267	419.88
318.343	417.59
318.419	394.63
318.496	410.7
318.572	426.77
318.648	454.32
318.724	383.15
318.8	458.91
318.876	408.4
318.952	424.47
319.028	410.7
319.105	408.4
319.181	330.34
319.257	378.55
319.333	341.82
319.409	385.44
319.485	429.07
319.561	417.59
319.637	419.88
319.713	387.74
319.789	339.52
319.865	376.26
319.94	401.51
320.016	385.44
320.092	429.07
320.168	431.36
320.244	403.81
320.32	408.4
320.396	440.55
320.472	380.85
320.547	403.81
320.623	472.69
320.699	401.51
320.775	458.91
320.851	415.29
320.926	435.95
321.002	429.07
321.078	367.07
321.154	380.85
321.229	419.88
321.305	456.62
321.381	371.67
321.456	390.03
321.532	401.51
321.608	399.22
321.683	458.91
321.759	383.15
321.835	419.88
321.91	376.26
321.986	360.19
322.061	431.36
322.137	417.59
322.212	463.51
322.288	408.4
322.364	341.82
322.439	412.99
322.515	410.7
322.59	442.84
322.666	438.25
322.741	406.11
322.816	376.26
322.892	385.44
322.967	383.15
323.043	412.99
323.118	415.29
323.193	403.81
323.269	357.89
323.344	390.03
323.42	412.99
323.495	378.55
323.57	412.99
323.646	399.22
323.721	355.59
323.796	426.77
323.871	392.33
323.947	390.03
324.022	373.96
324.097	380.85
324.172	351
324.248	385.44
324.323	392.33
324.398	380.85
324.473	396.92
324.548	456.62
324.623	417.59
324.699	412.99
324.774	415.29
324.849	419.88
324.924	422.18
324.999	383.15
325.074	348.71
325.149	396.92
325.224	380.85
325.299	353.3
325.374	472.69
325.449	399.22
325.524	433.66
325.599	378.55
325.674	452.03
325.749	369.37
325.824	364.78
325.899	419.88
325.974	406.11
326.049	392.33
326.124	424.47
326.199	357.89
326.273	412.99
326.348	433.66
326.423	435.95
326.498	415.29
326.573	376.26
326.648	408.4
326.722	410.7
326.797	387.74
326.872	442.84
326.947	500.24
327.021	474.99
327.096	376.26
327.171	309.67
327.245	401.51
327.32	392.33
327.395	431.36
327.47	371.67
327.544	463.51
327.619	422.18
327.693	431.36
327.768	417.59
327.843	378.55
327.917	447.43
327.992	394.63
328.066	417.59
328.141	314.27
328.215	406.11
328.29	458.91
328.364	445.14
328.439	369.37
328.513	410.7
328.588	406.11
328.662	445.14
328.737	442.84
328.811	341.82
328.886	385.44
328.96	337.23
329.035	383.15
329.109	442.84
329.183	433.66
329.258	412.99
329.332	399.22
329.406	412.99
329.481	396.92
329.555	419.88
329.629	408.4
329.704	410.7
329.778	380.85
329.852	323.45
329.926	417.59
330.001	456.62
330.075	431.36
330.149	373.96
330.223	392.33
330.297	511.72
330.372	399.22
330.446	357.89
330.52	435.95
330.594	417.59
330.668	399.22
330.742	396.92
330.816	417.59
330.89	438.25
330.964	392.33
331.038	415.29
331.113	387.74
331.187	415.29
331.261	454.32
331.335	408.4
331.409	470.39
331.483	447.43
331.557	369.37
331.63	396.92
331.704	442.84
331.778	461.21
331.852	449.73
331.926	383.15
332	424.47
332.074	401.51
332.148	406.11
332.222	403.81
332.295	390.03
332.369	429.07
332.443	330.34
332.517	378.55
332.591	426.77
332.665	383.15
332.738	408.4
332.812	435.95
332.886	383.15
332.959	383.15
333.033	458.91
333.107	488.76
333.181	474.99
333.254	431.36
333.328	399.22
333.402	412.99
333.475	369.37
333.549	426.77
333.622	422.18
333.696	401.51
333.77	426.77
333.843	461.21
333.917	351
333.99	408.4
334.064	403.81
334.137	456.62
334.211	332.63
334.284	410.7
334.358	410.7
334.431	385.44
334.505	385.44
334.578	378.55
334.652	408.4
334.725	408.4
334.799	394.63
334.872	449.73
334.945	410.7
335.019	429.07
335.092	396.92
335.165	440.55
335.239	458.91
335.312	390.03
335.385	422.18
335.459	341.82
335.532	445.14
335.605	385.44
335.678	424.47
335.752	371.67
335.825	447.43
335.898	419.88
335.971	458.91
336.045	479.58
336.118	401.51
336.191	426.77
336.264	463.51
336.337	435.95
336.41	406.11
336.483	454.32
336.557	433.66
336.63	410.7
336.703	396.92
336.776	410.7
336.849	474.99
336.922	429.07
336.995	449.73
337.068	433.66
337.141	458.91
337.214	412.99
337.287	449.73
337.36	403.81
337.433	392.33
337.506	426.77
337.579	399.22
337.652	399.22
337.725	376.26
337.797	435.95
337.87	429.07
337.943	387.74
338.016	355.59
338.089	403.81
338.162	373.96
338.235	380.85
338.307	447.43
338.38	500.24
338.453	422.18
338.526	417.59
338.598	465.8
338.671	408.4
338.744	429.07
338.817	431.36
338.889	378.55
338.962	403.81
339.035	383.15
339.107	417.59
339.18	399.22
339.253	424.47
339.325	399.22
339.398	514.02
339.47	396.92
339.543	452.03
339.616	442.84
339.688	392.33
339.761	399.22
339.833	433.66
339.906	438.25
339.978	497.95
340.051	445.14
340.123	461.21
340.196	378.55
340.268	417.59
340.341	442.84
340.413	364.78
340.485	456.62
340.558	429.07
340.63	438.25
340.703	438.25
340.775	399.22
340.847	408.4
340.92	440.55
340.992	371.67
341.064	403.81
341.137	364.78
341.209	452.03
341.281	491.06
341.354	419.88
341.426	394.63
341.498	394.63
341.57	401.51
341.643	484.17
341.715	435.95
341.787	449.73
341.859	431.36
341.931	468.1
342.003	472.69
342.076	406.11
342.148	408.4
342.22	449.73
342.292	449.73
342.364	387.74
342.436	433.66
342.508	419.88
342.58	431.36
342.652	399.22
342.724	493.36
342.796	484.17
342.868	380.85
342.94	431.36
343.012	369.37
343.084	454.32
343.156	431.36
343.228	474.99
343.3	463.51
343.372	438.25
343.444	410.7
343.516	426.77
343.588	509.43
343.66	415.29
343.731	445.14
343.803	472.69
343.875	424.47
343.947	392.33
344.019	415.29
344.09	511.72
344.162	406.11
344.234	410.7
344.306	468.1
344.377	511.72
344.449	440.55
344.521	465.8
344.593	417.59
344.664	403.81
344.736	394.63
344.808	426.77
344.879	468.1
344.951	484.17
345.023	486.47
345.094	486.47
345.166	442.84
345.237	435.95
345.309	440.55
345.38	495.65
345.452	468.1
345.524	396.92
345.595	484.17
345.667	491.06
345.738	445.14
345.81	491.06
345.881	474.99
345.953	435.95
346.024	438.25
346.095	465.8
346.167	488.76
346.238	385.44
346.31	429.07
346.381	477.28
346.452	486.47
346.524	401.51
346.595	417.59
346.666	449.73
346.738	491.06
346.809	518.61
346.88	431.36
346.952	470.39
347.023	454.32
347.094	497.95
347.165	493.36
347.237	426.77
347.308	465.8
347.379	442.84
347.45	479.58
347.521	468.1
347.593	424.47
347.664	376.26
347.735	474.99
347.806	401.51
347.877	495.65
347.948	442.84
348.019	523.2
348.09	477.28
348.161	481.88
348.233	449.73
348.304	479.58
348.375	449.73
348.446	468.1
348.517	530.09
348.588	468.1
348.659	507.13
348.73	491.06
348.801	468.1
348.871	500.24
348.942	509.43
349.013	438.25
349.084	438.25
349.155	495.65
349.226	497.95
349.297	530.09
349.368	500.24
349.439	514.02
349.509	454.32
349.58	511.72
349.651	468.1
349.722	502.54
349.793	458.91
349.863	534.68
349.934	481.88
350.005	431.36
350.076	509.43
350.146	495.65
350.217	534.68
350.288	461.21
350.358	504.84
350.429	465.8
350.5	477.28
350.57	465.8
350.641	488.76
350.711	573.72
350.782	481.88
350.853	532.39
350.923	536.98
350.994	525.5
351.064	571.42
351.135	580.6
351.205	532.39
351.276	589.79
351.346	474.99
351.417	589.79
351.487	580.6
351.558	550.76
351.628	566.83
351.699	536.98
351.769	534.68
351.84	557.64
351.91	615.04
351.98	564.53
352.051	617.34
352.121	585.2
352.191	628.82
352.262	628.82
352.332	571.42
352.402	571.42
352.473	660.96
352.543	576.01
352.613	700
352.683	713.77
352.754	727.55
352.824	688.52
352.894	775.76
352.964	690.81
353.035	752.8
353.105	732.14
353.175	757.4
353.245	823.98
353.315	865.31
353.385	807.91
353.455	913.52
353.526	897.45
353.596	941.08
353.666	961.74
353.736	991.59
353.806	943.37
353.876	1069.65
353.946	1136.24
354.016	1115.57
354.086	1198.23
354.156	1303.85
354.226	1274
354.296	1234.97
354.366	1324.51
354.436	1352.06
354.506	1395.69
354.576	1487.53
354.645	1508.19
354.715	1503.6
354.785	1577.07
354.855	1602.33
354.925	1767.64
354.995	1838.82
355.065	1795.19
355.134	1914.58
355.204	1994.95
355.274	2036.27
355.344	2141.89
355.414	2151.07
355.483	2275.06
355.553	2334.75
355.623	2396.75
355.693	2523.03
355.762	2656.2
355.832	2736.56
355.902	2821.51
355.971	2924.83
356.041	2842.17
356.111	3087.85
356.18	3250.86
356.25	3423.06
356.319	3367.96
356.389	3551.64
356.459	3749.1
356.528	3668.74
356.598	3893.75
356.667	4059.06
356.737	4224.37
356.806	4235.85
356.876	4442.49
356.945	4545.81
357.015	4738.68
357.084	4922.36
357.154	5089.97
357.223	5216.25
357.292	5289.72
357.362	5528.5
357.431	5707.59
357.501	5682.34
357.57	6065.77
357.639	6024.44
357.709	6414.76
357.778	6550.23
357.847	6901.52
357.917	7032.39
357.986	7434.19
358.055	7606.39
358.124	7932.43
358.194	7835.99
358.263	8187.28
358.332	8533.98
358.401	8584.49
358.471	8990.89
358.54	8956.45
358.609	9383.5
358.678	9654.43
358.747	9991.95
358.816	10239.92
358.886	10453.44
358.955	10547.58
359.024	11156.02
359.093	11465.98
359.162	11484.35
359.231	12106.57
359.3	12037.69
359.369	12411.94
359.438	12868.85
359.507	13259.17
359.576	13396.93
359.645	13968.63
359.714	14489.83
359.783	14600.04
359.852	14910
359.921	15451.86
359.99	15644.72
360.059	15768.71
360.128	16540.17
360.197	16643.49
360.266	17121.06
360.334	17649.14
360.403	17697.35
360.472	18354.01
360.541	18705.3
360.61	19136.95
360.679	19479.06
360.747	20071.43
360.816	20445.68
360.885	20994.42
360.954	20948.5
361.022	21949.56
361.091	22107.99
361.16	22567.19
361.228	22877.15
361.297	23189.41
361.366	24112.41
361.434	24201.95
361.503	24587.68
361.572	24994.07
361.64	25875.74
361.709	26282.13
361.778	26745.93
361.846	26925.02
361.915	27600.04
361.983	28357.73
362.052	28718.2
362.12	29018.98
362.189	29733.04
362.257	30180.76
362.326	30247.34
362.394	30848.9
362.463	31514.74
362.531	32146.14
362.6	32476.77
362.668	33220.67
362.737	33521.45
362.805	34341.13
362.873	34703.9
362.942	35057.48
363.01	35636.08
363.079	36056.25
363.147	36458.05
363.215	36832.3
363.284	37110.12
363.352	37886.17
363.42	38320.11
363.488	39174.23
363.557	39525.52
363.625	39927.32
363.693	40035.23
363.761	40540.35
363.83	41394.47
363.898	41121.24
363.966	42133.78
364.034	42611.35
364.102	42625.13
364.171	43208.32
364.239	43332.3
364.307	44230.04
364.375	44326.47
364.443	44746.64
364.511	45240.28
364.579	45954.34
364.647	45851.02
364.715	46202.31
364.783	46780.91
364.851	46741.88
364.919	47407.72
364.987	47961.06
365.055	48321.53
365.123	48932.27
365.191	48718.74
365.259	49487.9
365.327	49490.2
365.395	49802.46
365.463	50112.42
365.531	50580.8
365.599	50527.99
365.667	50833.36
365.735	50580.8
365.802	51221.39
365.87	51616.3
365.938	51549.72
366.006	51705.85
366.074	52038.77
366.142	52309.7
366.209	52034.18
366.277	52413.02
366.345	52550.78
366.413	52833.19
366.48	52968.65
366.548	52541.6
366.616	52927.32
366.683	53179.89
366.751	53368.16
366.819	53430.15
366.886	53322.24
366.954	53340.61
367.022	53581.69
367.089	53303.87
367.157	53574.8
367.224	53524.29
367.292	53620.72
367.36	53848.02
367.427	53997.27
367.495	53811.29
367.562	53689.6
367.63	53549.54
367.697	53714.86
367.765	53939.86
367.832	53659.75
367.9	53873.28
367.967	54043.19
368.034	53937.57
368.102	53549.54
368.169	53836.54
368.237	53588.58
368.304	53632.2
368.371	53455.41
368.439	53597.76
368.506	53189.07
368.573	53515.1
368.641	53675.82
368.708	53278.61
368.775	53317.65
368.843	52787.27
368.91	52647.21
368.977	52677.06
369.044	53039.83
369.112	52663.28
369.179	52582.92
369.246	52286.74
369.313	52422.2
369.38	52144.39
369.448	52043.36
369.515	52052.55
369.582	51657.63
369.649	51710.44
369.716	51614.01
369.783	51779.32
369.85	51370.63
369.917	51237.46
369.984	51120.37
370.052	50865.51
370.119	50755.3
370.186	50876.99
370.253	50286.91
370.32	49908.07
370.387	50261.66
370.454	49779.5
370.521	49745.06
370.587	49499.38
370.654	49503.97
370.721	49446.57
370.788	49274.37
370.855	48714.15
370.922	49047.07
370.989	48792.21
371.056	48537.35
371.123	48016.16
371.189	47690.13
371.256	47745.23
371.323	47444.45
371.39	46718.91
371.457	46895.71
371.523	46700.55
371.59	46604.11
371.657	46650.03
371.724	46186.24
371.79	45844.14
371.857	46342.37
371.924	45651.27
371.991	45421.67
372.057	45203.55
372.124	45120.89
372.191	44978.54
372.257	44703.02
372.324	44937.21
372.39	44583.63
372.457	44280.55
372.524	44480.31
372.59	44540
372.657	43476.95
372.723	43079.74
372.79	42882.28
372.856	42804.22
372.923	42847.84
372.989	42567.73
373.056	42214.14
373.122	42014.39
373.189	42301.39
373.255	41697.54
373.322	41314.11
373.388	41298.04
373.454	41006.44
373.521	40730.92
373.587	40306.16
373.654	40191.36
373.72	39863.03
373.786	40023.75
373.853	39316.58
373.919	39252.29
373.985	39024.99
374.052	38887.23
374.118	38806.87
374.184	38329.3
374.25	38255.82
374.317	38092.81
374.383	38170.87
374.449	37665.75
374.515	37840.25
374.581	37114.71
374.648	36882.81
374.714	36834.59
374.78	36618.77
374.846	35861.09
374.912	36076.91
374.978	35454.69
375.044	35872.57
375.11	35094.22
375.177	34977.12
375.243	34759
375.309	34552.36
375.375	34389.34
375.441	34185
375.507	34038.05
375.573	33498.49
375.639	33381.4
375.705	32977.3
375.771	33000.26
375.837	32857.91
375.903	32766.06
375.968	31928.02
376.034	32189.77
376.1	31833.89
376.166	31386.16
376.232	31252.99
376.298	30800.68
376.364	30522.86
376.43	30506.79
376.495	30102.69
376.561	29462.11
376.627	29572.32
376.693	29037.35
376.759	29048.83
376.824	28699.83
376.89	28585.03
376.956	28295.73
377.022	28534.52
377.087	27749.28
377.153	27547.24
377.219	27430.14
377.284	27065.07
377.35	26596.69
377.416	26796.44
377.481	26667.86
377.547	26252.29
377.613	25669.1
377.678	25568.08
377.744	25333.88
377.809	25007.85
377.875	24693.3
377.94	24502.73
378.006	24158.33
378.071	24243.28
378.137	23960.87
378.202	23979.24
378.268	23510.85
378.333	23118.23
378.399	22968.99
378.464	22840.42
378.53	22436.32
378.595	22321.52
378.661	22305.45
378.726	21715.37
378.791	21329.64
378.857	21545.47
378.922	21488.07
378.987	21246.99
379.053	20946.21
379.118	20790.08
379.183	20434.2
379.249	20406.65
379.314	19880.86
379.379	19823.46
379.444	19805.09
379.51	19515.79
379.575	19451.51
379.64	19180.58
379.705	19063.48
379.771	18746.63
379.836	18266.76
379.901	18422.89
379.966	18131.3
380.031	18078.49
380.096	18071.6
380.161	17527.45
380.227	17385.1
380.292	17217.49
380.357	16891.46
380.422	17192.23
380.487	16877.68
380.552	16769.77
380.617	16700.89
380.682	16611.34
380.747	16420.77
380.812	16131.48
380.877	15911.06
380.942	15867.43
381.007	15415.12
381.072	15557.47
381.137	15555.18
381.202	15082.2
381.266	14955.92
381.331	14774.53
381.396	14896.22
381.461	14386.51
381.526	14205.12
381.591	14223.49
381.656	14368.14
381.72	14060.48
381.785	14113.28
381.85	14014.56
381.915	13766.59
381.979	13456.62
382.044	13458.92
382.109	13472.7
382.174	13399.22
382.238	13334.94
382.303	13282.13
382.368	12937.73
382.432	12857.37
382.497	12604.81
382.562	12581.85
382.626	12496.89
382.691	12283.36
382.756	12196.12
382.82	11950.44
382.885	12058.36
382.949	11911.41
383.014	11707.07
383.078	11461.39
383.143	11541.75
383.208	11332.82
383.272	11263.94
383.337	11112.4
383.401	11190.46
383.465	10914.94
383.53	10699.12
383.594	10536.1
383.659	10749.63
383.723	10462.63
383.788	10448.85
383.852	10313.39
383.916	10494.77
383.981	10246.8
384.045	10044.75
384.109	9991.95
384.174	9863.37
384.238	9739.39
384.302	9702.65
384.367	9707.24
384.431	9463.86
384.495	9385.8
384.56	9365.14
384.624	9034.51
384.688	9096.5
384.752	9006.96
384.816	8940.37
384.881	8733.73
384.945	8605.16
385.009	8667.15
385.073	8586.79
385.137	8515.61
385.201	8490.36
385.265	8279.12
385.33	8224.02
385.394	8201.06
385.458	8033.45
385.522	8143.66
385.586	7941.61
385.65	7927.83
385.714	7856.66
385.778	7604.1
385.842	7640.83
385.906	7544.4
385.97	7390.57
386.034	7523.74
386.098	7232.14
386.162	7365.31
386.226	7257.4
386.29	7121.93
386.354	7206.89
386.417	6945.14
386.481	6961.21
386.545	6834.93
386.609	6798.2
386.673	6818.86
386.737	6692.58
386.8	6442.32
386.864	6485.94
386.928	6449.2
386.992	6297.67
387.056	6221.9
387.119	6192.05
387.183	6178.27
387.247	6173.68
387.31	5978.52
387.374	5967.04
387.438	5769.58
387.502	5776.47
387.565	5847.65
387.629	5647.9
387.692	5647.9
387.756	5553.76
387.82	5684.63
387.883	5542.28
387.947	5312.68
388.01	5390.74
388.074	5422.89
388.138	5174.92
388.201	5259.87
388.265	5140.48
388.328	5092.26
388.392	5117.52
388.455	5103.74
388.519	4839.7
388.582	4903.99
388.645	4718.01
388.709	4860.37
388.772	4839.7
388.836	4610.1
388.899	4720.31
388.962	4701.94
389.026	4676.68
389.089	4518.26
389.153	4509.08
389.216	4435.6
389.279	4375.91
389.343	4309.32
389.406	4297.84
389.469	4215.19
389.532	4233.55
389.596	4258.81
389.659	4134.83
389.722	4132.53
389.785	4036.1
389.848	3939.67
389.912	3944.26
389.975	3859.31
390.038	3884.56
390.101	3712.36
390.164	3829.46
390.227	3652.66
390.291	3666.44
390.354	3728.43
390.417	3666.44
390.48	3581.49
390.543	3627.41
390.606	3592.97
390.669	3530.98
390.732	3418.47
390.795	3324.33
390.858	3466.69
390.921	3363.37
390.984	3156.73
391.047	3335.81
391.11	3287.6
391.173	3234.79
391.236	3133.77
391.299	3108.51
391.362	3046.52
391.424	3067.18
391.487	3110.81
391.55	3087.85
391.613	3037.33
391.676	3030.45
391.739	2993.71
391.802	2934.01
391.864	2876.61
391.927	2901.87
391.99	2736.56
392.053	2832.99
392.115	2766.4
392.178	2628.64
392.241	2699.82
392.304	2736.56
392.366	2743.44
392.429	2660.79
392.492	2674.56
392.554	2603.39
392.617	2598.8
392.68	2566.65
392.742	2493.18
392.805	2527.62
392.867	2527.62
392.93	2520.73
392.992	2376.08
393.055	2458.74
393.118	2380.67
393.18	2435.78
393.243	2435.78
393.305	2341.64
393.368	2226.84
393.43	2412.82
393.493	2334.75
393.555	2178.63
393.618	2281.95
393.68	2343.94
393.742	2226.84
393.805	2137.3
393.867	2215.36
393.93	2132.71
393.992	2109.75
394.054	2054.64
394.117	2075.31
394.179	2013.31
394.241	2091.38
394.304	2029.39
394.366	1969.69
394.428	1923.77
394.49	2017.91
394.553	1896.22
394.615	1914.58
394.677	1985.76
394.739	1889.33
394.802	1795.19
394.864	1930.66
394.926	1971.99
394.988	1848
395.05	1900.81
395.112	1769.94
395.174	1792.9
395.237	1845.7
395.299	1760.75
395.361	1763.05
395.423	1712.54
395.485	1682.69
395.547	1648.25
395.609	1588.55
395.671	1652.84
395.733	1604.62
395.795	1526.56
395.857	1705.65
395.919	1588.55
395.981	1643.66
396.043	1602.33
396.105	1590.85
396.167	1588.55
396.229	1616.1
396.291	1616.1
396.352	1586.26
396.414	1526.56
396.476	1524.26
396.538	1423.24
396.6	1505.9
396.662	1478.34
396.724	1544.93
396.785	1482.94
396.847	1473.75
396.909	1446.2
396.971	1492.12
397.032	1462.27
397.094	1407.17
397.156	1342.88
397.218	1365.84
397.279	1347.47
397.341	1342.88
397.403	1397.98
397.464	1352.06
397.526	1349.77
397.588	1400.28
397.649	1315.33
397.711	1310.73
397.772	1232.67
397.834	1276.29
397.896	1310.73
397.957	1269.41
398.019	1248.74
398.08	1278.59
398.142	1271.7
398.203	1280.89
398.265	1319.92
398.326	1230.37
398.388	1218.89
398.449	1228.08
398.511	1200.53
398.572	1152.31
398.633	1143.13
398.695	1092.61
398.756	1179.86
398.818	1161.49
398.879	1159.2
398.94	1081.13
399.002	1120.17
399.063	1062.77
399.124	1007.66
399.186	1094.91
399.247	1138.53
399.308	1065.06
399.369	1055.88
399.431	1106.39
399.492	1108.69
399.553	1051.29
399.614	1042.1
399.676	1078.84
399.737	1067.36
399.798	1028.33
399.859	970.93
399.92	975.52
399.981	993.89
400.042	1016.85
400.104	1019.14
400.165	1009.96
400.226	1021.44
400.287	947.96
400.348	931.89
400.409	913.52
400.47	973.22
400.531	1021.44
400.592	980.11
400.653	1007.66
400.714	929.6
400.775	922.71
400.836	925
400.897	941.08
400.958	918.12
401.019	828.57
401.08	851.53
401.141	849.24
401.201	865.31
401.262	853.83
401.323	920.41
401.384	798.72
401.445	902.04
401.506	856.12
401.567	784.95
401.627	828.57
401.688	876.79
401.749	823.98
401.81	883.68
401.87	869.9
401.931	856.12
401.992	814.8
402.053	826.28
402.113	828.57
402.174	807.91
402.235	842.35
402.295	775.76
402.356	739.03
402.417	700
402.477	766.58
402.538	807.91
402.598	833.16
402.659	833.16
402.719	736.73
402.78	764.28
402.841	725.25
402.901	702.29
402.962	743.62
403.022	704.59
403.083	755.1
403.143	789.54
403.204	690.81
403.264	711.48
403.324	693.11
403.385	713.77
403.445	615.04
403.506	722.96
403.566	677.04
403.627	667.85
403.687	656.37
403.747	757.4
403.808	670.15
403.868	683.92
403.928	638
403.989	700
404.049	663.26
404.109	683.92
404.169	695.4
404.23	750.51
404.29	745.92
404.35	631.12
404.41	667.85
404.47	679.33
404.531	619.64
404.591	603.56
404.651	720.66
404.711	647.19
404.771	619.64
404.831	663.26
404.892	670.15
404.952	603.56
405.012	562.24
405.072	608.16
405.132	658.67
405.192	642.6
405.252	734.44
405.312	644.89
405.372	621.93
405.432	605.86
405.492	693.11
405.552	693.11
405.612	612.75
405.672	688.52
405.732	569.12
405.792	580.6
405.852	598.97
405.912	587.49
405.971	582.9
406.031	596.68
406.091	589.79
406.151	548.46
406.211	509.43
406.271	598.97
406.33	550.76
406.39	608.16
406.45	633.41
406.51	543.87
406.57	562.24
406.629	564.53
406.689	557.64
406.749	550.76
406.808	557.64
406.868	617.34
406.928	603.56
406.988	592.08
407.047	546.16
407.107	546.16
407.166	562.24
407.226	578.31
407.286	585.2
407.345	543.87
407.405	534.68
407.464	589.79
407.524	555.35
407.584	596.68
407.643	557.64
407.703	557.64
407.762	507.13
407.822	580.6
407.881	514.02
407.941	509.43
408	500.24
408.059	543.87
408.119	571.42
408.178	555.35
408.238	520.91
408.297	562.24
408.356	530.09
408.416	534.68
408.475	539.28
408.535	527.8
408.594	488.76
408.653	532.39
408.712	497.95
408.772	536.98
408.831	520.91
408.89	470.39
408.95	500.24
409.009	452.03
409.068	488.76
409.127	500.24
409.186	493.36
409.246	539.28
409.305	539.28
409.364	479.58
409.423	410.7
409.482	504.84
409.541	500.24
409.6	532.39
409.66	516.32
409.719	518.61
409.778	500.24
409.837	470.39
409.896	523.2
409.955	520.91
410.014	594.38
410.073	474.99
410.132	548.46
410.191	477.28
410.25	514.02
410.309	435.95
410.368	532.39
410.427	532.39
410.486	491.06
410.545	454.32
410.603	424.47
410.662	527.8
410.721	458.91
410.78	438.25
410.839	511.72
410.898	511.72
410.957	507.13
411.015	504.84
411.074	417.59
411.133	514.02
411.192	463.51
411.25	452.03
411.309	454.32
411.368	511.72
411.427	440.55
411.485	465.8
411.544	502.54
411.603	470.39
411.661	541.57
411.72	477.28
411.779	532.39
411.837	500.24
411.896	488.76
411.955	422.18
412.013	435.95
412.072	408.4
412.13	452.03
412.189	465.8
412.247	463.51
412.306	474.99
412.364	452.03
412.423	452.03
412.481	371.67
412.54	456.62
412.598	435.95
412.657	553.05
412.715	461.21
412.774	461.21
412.832	550.76
412.891	461.21
412.949	447.43
413.007	502.54
413.066	415.29
413.124	417.59
413.182	424.47
413.241	468.1
413.299	468.1
413.357	410.7
413.416	488.76
413.474	415.29
413.532	486.47
413.59	500.24
413.649	518.61
413.707	465.8
413.765	479.58
413.823	417.59
413.881	419.88
413.94	410.7
413.998	390.03
414.056	447.43
414.114	442.84
414.172	422.18
414.23	472.69
414.288	419.88
414.347	440.55
414.405	415.29
414.463	463.51
414.521	470.39
414.579	509.43
414.637	445.14
414.695	452.03
414.753	461.21
414.811	410.7
414.869	401.51
414.927	520.91
414.985	438.25
415.043	456.62
415.101	449.73
415.158	440.55
415.216	463.51
415.274	422.18
415.332	477.28
415.39	380.85
415.448	426.77
415.506	406.11
415.563	454.32
415.621	431.36
415.679	419.88
415.737	479.58
415.795	433.66
415.852	373.96
415.91	449.73
415.968	477.28
416.026	392.33
416.083	369.37
416.141	399.22
416.199	445.14
416.256	486.47
416.314	367.07
416.372	419.88
416.429	447.43
416.487	470.39
416.544	376.26
416.602	440.55
416.66	385.44
416.717	454.32
416.775	396.92
416.832	477.28
416.89	390.03
416.947	380.85
417.005	419.88
417.062	387.74
417.12	403.81
417.177	424.47
417.235	415.29
417.292	394.63
417.35	415.29
417.407	353.3
417.464	396.92
417.522	378.55
417.579	408.4
417.637	452.03
417.694	419.88
417.751	387.74
417.809	392.33
417.866	346.41
417.923	442.84
417.981	445.14
418.038	433.66
418.095	412.99
418.152	449.73
418.21	401.51
418.267	429.07
418.324	401.51
418.381	435.95
418.438	426.77
418.496	440.55
418.553	403.81
418.61	431.36
418.667	401.51
418.724	452.03
418.781	403.81
418.838	468.1
418.895	376.26
418.952	399.22
419.01	337.23
419.067	371.67
419.124	376.26
419.181	394.63
419.238	387.74
419.295	426.77
419.352	406.11
419.409	353.3
419.466	334.93
419.523	401.51
419.579	410.7
419.636	378.55
419.693	387.74
419.75	337.23
419.807	399.22
419.864	426.77
419.921	401.51
419.978	396.92
420.034	367.07
420.091	401.51
420.148	378.55
420.205	390.03
420.262	364.78
420.318	362.48
420.375	417.59
420.432	364.78
420.489	346.41
420.545	344.11
420.602	433.66
420.659	429.07
420.715	431.36
420.772	380.85
420.829	424.47
420.885	364.78
420.942	344.11
420.999	422.18
421.055	392.33
421.112	346.41
421.168	422.18
421.225	355.59
421.282	445.14
421.338	367.07
421.395	385.44
421.451	344.11
421.508	412.99
421.564	392.33
421.621	376.26
421.677	330.34
421.734	378.55
421.79	348.71
421.846	445.14
421.903	449.73
421.959	426.77
422.016	355.59
422.072	426.77
422.128	373.96
422.185	440.55
422.241	369.37
422.297	403.81
422.354	461.21
422.41	376.26
422.466	367.07
422.523	406.11
422.579	412.99
422.635	383.15
422.691	367.07
422.748	367.07
422.804	373.96
422.86	371.67
422.916	449.73
422.972	408.4
423.029	403.81
423.085	390.03
423.141	479.58
423.197	380.85
423.253	396.92
423.309	344.11
423.365	378.55
423.421	419.88
423.477	392.33
423.533	410.7
423.589	378.55
423.645	424.47
423.701	412.99
423.757	403.81
423.813	440.55
423.869	419.88
423.925	424.47
423.981	403.81
424.037	412.99
424.093	380.85
424.149	422.18
424.205	406.11
424.261	399.22
424.317	390.03
424.373	410.7
424.428	371.67
424.484	346.41
424.54	373.96
424.596	392.33
424.652	417.59
424.708	406.11
424.763	380.85
424.819	454.32
424.875	353.3
424.931	346.41
424.986	442.84
425.042	415.29
425.098	364.78
425.153	424.47
425.209	348.71
425.265	410.7
425.32	392.33
425.376	348.71
425.432	387.74
425.487	339.52
425.543	417.59
425.598	334.93
425.654	394.63
425.709	433.66
425.765	403.81
425.82	406.11
425.876	341.82
425.932	390.03
425.987	387.74
426.042	412.99
426.098	419.88
426.153	387.74
426.209	401.51
426.264	429.07
426.32	385.44
426.375	431.36
426.43	415.29
426.486	385.44
426.541	344.11
426.597	394.63
426.652	445.14
426.707	419.88
426.763	426.77
426.818	474.99
426.873	357.89
426.928	328.04
426.984	380.85
427.039	452.03
427.094	422.18
427.149	334.93
427.205	339.52
427.26	406.11
427.315	424.47
427.37	385.44
427.425	373.96
427.48	431.36
427.536	406.11
427.591	438.25
427.646	426.77
427.701	330.34
427.756	371.67
427.811	378.55
427.866	390.03
427.921	396.92
427.976	353.3
428.031	406.11
428.086	373.96
428.141	369.37
428.196	341.82
428.251	396.92
428.306	346.41
428.361	367.07
428.416	387.74
428.471	387.74
428.526	419.88
428.581	321.15
428.636	353.3
428.691	424.47
428.745	415.29
428.8	385.44
428.855	426.77
428.91	396.92
428.965	452.03
429.02	383.15
429.074	390.03
429.129	364.78
429.184	410.7
429.239	337.23
429.293	362.48
429.348	373.96
429.403	440.55
429.457	344.11
429.512	371.67
429.567	378.55
429.621	330.34
429.676	371.67
429.731	355.59
429.785	323.45
429.84	383.15
429.895	371.67
429.949	323.45
430.004	362.48
430.058	346.41
430.113	385.44
430.167	369.37
430.222	369.37
430.276	401.51
430.331	371.67
430.385	376.26
430.44	387.74
430.494	378.55
430.549	339.52
430.603	328.04
430.657	403.81
430.712	406.11
430.766	360.19
430.821	390.03
430.875	431.36
430.929	371.67
430.984	378.55
431.038	415.29
431.092	387.74
431.147	311.97
431.201	378.55
431.255	396.92
431.309	369.37
431.364	373.96
431.418	353.3
431.472	410.7
431.526	410.7
431.581	387.74
431.635	408.4
431.689	328.04
431.743	403.81
431.797	380.85
431.851	369.37
431.906	351
431.96	344.11
432.014	371.67
432.068	323.45
432.122	355.59
432.176	438.25
432.23	387.74
432.284	392.33
432.338	323.45
432.392	412.99
432.446	403.81
432.5	360.19
432.554	344.11
432.608	429.07
432.662	380.85
432.716	339.52
432.77	401.51
432.824	406.11
432.878	348.71
432.931	396.92
432.985	403.81
433.039	325.75
433.093	314.27
433.147	412.99
433.201	401.51
433.254	367.07
433.308	387.74
433.362	351
433.416	330.34
433.47	385.44
433.523	417.59
433.577	424.47
433.631	346.41
433.684	376.26
433.738	445.14
433.792	364.78
433.846	355.59
433.899	325.75
433.953	367.07
434.006	456.62
434.06	348.71
434.114	426.77
434.167	426.77
434.221	426.77
