Data from QEPB00791_14-47-38-797.txt Node
Date: Mon Sep 02 14:47:38 MDT 2024
User: ecestudent
Spectrometer: QEPB0079
Trigger mode: 0
Integration Time (sec): 8.000000E-3
Scans to average: 100
Electric dark correction enabled: true
Nonlinearity correction enabled: true
Boxcar width: 0
XAxis mode: Wavelengths
Number of Pixels in Spectrum: 1044
>>>>>Begin Spectral Data<<<<<
198.864	38.3
199.671	38.33
200.477	39.04
201.284	39.09
202.091	38.69
202.897	39.2
203.704	39.43
204.51	39.35
205.317	39.72
206.123	40.02
206.929	39.89
207.736	39.64
208.542	40.06
209.348	40.06
210.154	40.42
210.96	40.28
211.765	40.07
212.571	40.85
213.377	40.5
214.182	41.03
214.988	41.49
215.793	41.41
216.599	41.11
217.404	41.3
218.209	41.19
219.015	42.02
219.82	41.74
220.625	41.65
221.43	41.52
222.235	42.24
223.039	42.53
223.844	42.5
224.649	42.75
225.453	42.47
226.258	43.3
227.062	42.71
227.867	42.98
228.671	43.24
229.475	43.48
230.28	43.52
231.084	43.61
231.888	44.15
232.692	44.05
233.496	44.29
234.299	44.73
235.103	44.58
235.907	44.85
236.71	44.78
237.514	45.25
238.317	45.5
239.121	45.7
239.924	46.56
240.727	46.44
241.531	46.74
242.334	46.71
243.137	47.57
243.94	48.05
244.743	48.27
245.545	48.7
246.348	48.99
247.151	49.46
247.954	50.39
248.756	50.43
249.559	51
250.361	52.02
251.163	52.11
251.965	52.64
252.768	53.26
253.57	54.28
254.372	54.3
255.174	54.28
255.976	54.54
256.777	55.03
257.579	55.62
258.381	55.82
259.183	56.67
259.984	56.77
260.786	56.99
261.587	57.34
262.388	57.26
263.189	58.37
263.991	58.63
264.792	59.27
265.593	60.06
266.394	60.54
267.195	60.86
267.995	61.44
268.796	62.01
269.597	62.65
270.397	63.5
271.198	64.55
271.998	65.27
272.799	66.73
273.599	67.26
274.399	68.61
275.2	69.59
276	70.79
276.8	71.74
277.6	73.13
278.4	74.33
279.199	75.88
279.999	76.95
280.799	78.43
281.598	79.76
282.398	81.17
283.197	83.41
283.997	85.04
284.796	86.58
285.595	88.43
286.395	90.77
287.194	93.4
287.993	95.53
288.792	98.84
289.59	101.17
290.389	104.24
291.188	107.2
291.987	111.49
292.785	115.17
293.584	119.4
294.382	125.32
295.181	131.74
295.979	138.54
296.777	147.03
297.575	155.5
298.373	164.99
299.171	176.78
299.969	188.91
300.767	203.01
301.565	218.51
302.363	233.8
303.16	248.78
303.958	265.65
304.756	283.17
305.553	302.89
306.35	325.56
307.148	352.63
307.945	384.98
308.742	419.9
309.539	456.76
310.336	494.33
311.133	531.68
311.93	569.22
312.727	612.85
313.524	661.67
314.32	698.06
315.117	716.74
315.913	724.53
316.71	725.28
317.506	724.62
318.302	724.91
319.099	726.78
319.895	724.34
320.691	719.9
321.487	713.8
322.283	705.3
323.079	695.84
323.874	694.06
324.67	688.94
325.466	687.89
326.261	698.83
327.057	711.25
327.852	723.79
328.648	740.92
329.443	769.24
330.238	807.3
331.033	865.81
331.828	934.86
332.623	1002.99
333.418	1048.79
334.213	1055.28
335.008	1026.02
335.803	999.25
336.597	990.48
337.392	1000.22
338.186	1023.75
338.981	1051.56
339.775	1079.98
340.57	1122.45
341.364	1175.45
342.158	1235.33
342.952	1299.63
343.746	1353.68
344.54	1403.32
345.334	1448.24
346.127	1493.77
346.921	1527.74
347.715	1550.73
348.508	1569.88
349.302	1580.86
350.095	1603.06
350.889	1632.33
351.682	1660.72
352.475	1694.62
353.268	1726.56
354.061	1744.37
354.854	1770.11
355.647	1796.73
356.44	1829.29
357.233	1860.62
358.025	1912.63
358.818	1996.7
359.611	2132.45
360.403	2353.98
361.195	2684.86
361.988	3067.93
362.78	3478.26
363.572	3797.84
364.364	4041.99
365.156	4310.76
365.948	4496.39
366.74	4537.1
367.532	4481.95
368.324	4378.74
369.116	4242.1
369.907	4085.48
370.699	3940.74
371.49	3835.25
372.282	3734.62
373.073	3649.86
373.864	3573.48
374.655	3522.31
375.446	3504.12
376.237	3508.73
377.028	3528.76
377.819	3560.54
378.61	3591.59
379.401	3627.93
380.192	3682.76
380.982	3737.84
381.773	3796.66
382.563	3850.33
383.354	3931.56
384.144	4022.46
384.934	4128.11
385.724	4236.89
386.514	4353.5
387.304	4500.41
388.094	4640.8
388.884	4781.53
389.674	4921.34
390.464	5076.55
391.253	5229.33
392.043	5410.48
392.832	5621.49
393.622	5847.51
394.411	6089.28
395.201	6362.85
395.99	6654.02
396.779	6996.34
397.568	7413.21
398.357	7855.71
399.146	8388.67
399.935	9086.31
400.724	10194.75
401.512	12361.65
402.301	16159.43
403.09	21333.76
403.878	25996.89
404.667	27821.65
405.455	26968.8
406.243	25172.66
407.031	23390.64
407.82	21642.21
408.608	20476.2
409.396	19883.12
410.184	19757.38
410.971	19839.89
411.759	19866.38
412.547	19590.99
413.334	19203.8
414.122	18981.73
414.91	18973.41
415.697	19102.73
416.484	19393.45
417.272	19881.86
418.059	20331.26
418.846	20867.86
419.633	21620.34
420.42	22366.85
421.207	23173.32
421.994	24070.9
422.78	24906.71
423.567	25695.53
424.354	26557.7
425.14	27414.89
425.927	28405.09
426.713	29450.06
427.499	30824.23
428.286	32692.8
429.072	34742.87
429.858	36421.6
430.644	37428.48
431.43	38519.73
432.216	40656.32
433.002	45984.72
433.787	55959.06
434.573	63635.73
435.359	63635.73
436.144	63635.73
436.93	63635.73
437.715	63635.73
438.5	63635.73
439.286	61601.12
440.071	54187.28
440.856	49531.19
441.641	45828.42
442.426	42705.05
443.211	40368.7
443.996	38577.41
444.78	37251.93
445.565	36121.36
446.35	35114.3
447.134	33858.17
447.919	32639.25
448.703	31367.32
449.487	30050.01
450.271	28834.01
451.056	27836.93
451.84	26965.46
452.624	26303.22
453.408	26013.13
454.191	25824.27
454.975	25771.97
455.759	25637.61
456.543	25443.75
457.326	25092.58
458.11	24401.92
458.893	23591.99
459.676	22877.86
460.46	22369.82
461.243	21894.31
462.026	21535.13
462.809	21347.16
463.592	21256.37
464.375	21291.51
465.158	21428.88
465.941	21755.05
466.723	22013.1
467.506	22367.84
468.288	22712.89
469.071	22898.97
469.853	23130.64
470.636	23514.88
471.418	23843.03
472.2	24158.27
472.982	24254.06
473.764	24012.19
474.546	23587.29
475.328	23126.27
476.11	22962.91
476.892	22691.33
477.673	22488.66
478.455	22351.15
479.236	22292.71
480.018	22625.59
480.799	23125.88
481.581	23476.47
482.362	24031.64
483.143	24789.04
483.924	25596.98
484.705	26179.71
485.486	26311.62
486.267	26051.01
487.048	25871.68
487.828	25636.56
488.609	25069.18
489.39	24518.32
490.17	23882.3
490.951	23076.74
491.731	22050.04
492.511	20880.38
493.292	20235.99
494.072	20072.07
494.852	19961.55
495.632	19803.75
496.412	19464.76
497.192	19221.39
497.971	18972.56
498.751	18873.84
499.531	18744.34
500.31	18824.53
501.09	18731.74
501.869	18591.31
502.648	18508.39
503.428	18377.97
504.207	18136.99
504.986	17867.57
505.765	17624.62
506.544	17478.34
507.323	17265.77
508.102	17102.6
508.881	16939.36
509.659	16886.06
510.438	16895.26
511.216	16812.06
511.995	16795.43
512.773	16724.49
513.552	16645.02
514.33	16624.53
515.108	16639.95
515.886	16662.99
516.664	16755.64
517.442	16759.6
518.22	16784.8
518.998	16855.11
519.775	16897.08
520.553	16979.29
521.331	17044.35
522.108	17031.12
522.886	17063.97
523.663	17152.6
524.44	17239.99
525.218	17340.58
525.995	17542.17
526.772	17806.34
527.549	18080.24
528.326	18415.14
529.103	18885
529.879	19758.1
530.656	20866.26
531.433	22049.84
532.209	23279.14
532.986	24237.97
533.762	25138.98
534.539	26115.21
535.315	27334.81
536.091	28849.4
536.867	30553.88
537.643	32489.41
538.419	33606.39
539.195	34648.99
539.971	35743.07
540.747	37207.68
541.522	39240.01
542.298	42863.89
543.074	51762.11
543.849	63635.73
544.624	63635.73
545.4	63635.73
546.175	63635.73
546.95	63635.73
547.725	63635.73
548.5	63635.73
549.275	63635.73
550.05	63635.73
550.825	63635.73
551.6	63635.73
552.374	63635.73
553.149	63635.73
553.923	63635.73
554.698	63635.73
555.472	63635.73
556.247	52905.12
557.021	47346.34
557.795	45035.5
558.569	43482.46
559.343	42101.89
560.117	40795.49
560.891	39469.04
561.665	38281.72
562.438	36806.29
563.212	35216.07
563.985	34323.2
564.759	33242.9
565.532	32406.64
566.306	32436.21
567.079	32939.24
567.852	34177.49
568.625	36340.24
569.398	39309.9
570.171	43223.4
570.944	47664.4
571.717	53148.83
572.49	59720.76
573.262	63635.73
574.035	63635.73
574.808	63635.73
575.58	63635.73
576.352	63635.73
577.125	63635.73
577.897	63635.73
578.669	63635.73
579.441	63635.73
580.213	60149.05
580.985	55989.52
581.757	53481.01
582.529	50504.46
583.301	47699.42
584.072	45062.94
584.844	42703.4
585.615	40842.84
586.387	39007.7
587.158	37351.39
587.929	35942.31
588.701	34820.35
589.472	33539.66
590.243	32565.44
591.014	31818.09
591.785	31033.93
592.556	30325.56
593.326	29938.61
594.097	29374.58
594.868	28359.02
595.638	27377.41
596.409	26453.83
597.179	25271.36
597.949	24232.09
598.72	23912.67
599.49	23571.05
600.26	22890.4
601.03	22469.41
601.8	21990
602.57	21524.78
603.34	21167.84
604.109	20961.37
604.879	20590.09
605.649	20386.37
606.418	20442.83
607.188	20144.66
607.957	19808.89
608.726	19693.8
609.496	19599.07
610.265	19518.95
611.034	19597.76
611.803	19453.72
612.572	19435.48
613.341	19177.69
614.109	19133.72
614.878	18844.58
615.647	18543.38
616.415	18365.99
617.184	18224.66
617.952	18031.12
618.721	17760.63
619.489	17624.6
620.257	17348.22
621.025	17233.22
621.793	17186.6
622.561	17010.05
623.329	16837.12
624.097	16924.78
624.865	16847.49
625.632	16649.5
626.4	16571.23
627.168	16746.08
627.935	16745.68
628.702	16903.07
629.47	16797.84
630.237	16945.14
631.004	17032.57
631.771	17083.33
632.538	17067.44
633.305	16995.67
634.072	16828.53
634.839	16915.54
635.606	16947.33
636.372	16624.57
637.139	16527.45
637.905	16528.24
638.672	16353.29
639.438	16264.68
640.204	16182.13
640.971	16123.72
641.737	16054.39
642.503	16254.01
643.269	16109.73
644.035	15917.69
644.8	15888.28
645.566	15593.36
646.332	15754.7
647.097	15803.74
647.863	15712.86
648.629	15805.31
649.394	15779.08
650.159	15707.09
650.924	15730.77
651.69	15790.21
652.455	15837.68
653.22	15777.39
653.985	15685.39
654.75	15714.98
655.514	15641.45
656.279	15599.1
657.044	15535.9
657.808	15579.53
658.573	15681.66
659.337	15566.69
660.102	15386.81
660.866	15524.98
661.63	15473.53
662.394	15375.44
663.158	15455.77
663.922	15431.6
664.686	15297.4
665.45	15245.49
666.214	15224.12
666.978	15188.54
667.741	15195.54
668.505	15170.3
669.268	15203.54
670.032	15314.22
670.795	15197.53
671.558	15320.38
672.321	15311.06
673.084	15325.95
673.847	15379.18
674.61	15298.04
675.373	15392.58
676.136	15328.55
676.899	15325
677.662	15302.66
678.424	15296.78
679.187	15190.59
679.949	15235.03
680.711	15252.49
681.474	15265.56
682.236	15383.17
682.998	15373.89
683.76	15272.37
684.522	15153.67
685.284	15276.64
686.046	15217.69
686.808	15337.36
687.569	15237.57
688.331	15046.08
689.092	15069.01
689.854	15117.08
690.615	15107.88
691.377	15211.01
692.138	15217.07
692.899	15199.04
693.66	15111.43
694.421	15183.89
695.182	15118.67
695.943	15080.47
696.704	15028.23
697.465	15243.68
698.225	15271.36
698.986	15136.23
699.746	14951.54
700.507	14736.66
701.267	14916.62
702.027	14868.96
702.788	14944.47
703.548	14750.82
704.308	14803.61
705.068	14695.64
705.828	14602.15
706.588	14781.57
707.347	14728.3
708.107	14623.83
708.867	14523.08
709.626	14410.09
710.386	14676.43
711.145	14863.71
711.904	14611.76
712.664	14403.02
713.423	14490.69
714.182	14551.68
714.941	14203.29
715.7	14084.96
716.459	14201.83
717.218	13920.11
717.976	13858.55
718.735	13764.94
719.494	13783.58
720.252	13788.34
721.011	13581.71
721.769	13603.94
722.527	13355.96
723.285	13274.27
724.044	13530.18
724.802	13544.34
725.56	13616.38
726.317	13493.63
727.075	13525.27
727.833	13366.93
728.591	13321.33
729.348	13257.59
730.106	12997.11
730.863	12715.7
731.621	12579.23
732.378	12627.19
733.135	12401.86
733.893	12273.34
734.65	12195.97
735.407	12043.09
736.164	11916.48
736.92	11872.43
737.677	11544.94
738.434	11580.99
739.191	11601.35
739.947	11546.21
740.704	11367.22
741.46	11339.01
742.216	11297.06
742.973	11388.32
743.729	11505.32
744.485	11291.05
745.241	11302.74
745.997	11371.16
746.753	11232.84
747.509	11298.4
748.265	11242.24
749.02	11108.82
749.776	11164.22
750.531	10953.69
751.287	10631.78
752.042	10637.19
752.798	10746.92
753.553	10691.95
754.308	10687.76
755.063	10492.78
755.818	10305.52
756.573	10397.19
757.328	10358.71
758.083	10081.39
758.837	10222.53
759.592	10235.48
760.347	10182.47
761.101	10037.8
761.855	10072.54
762.61	10065.47
763.364	10093.32
764.118	9971.19
764.872	9882.74
765.626	9834.66
766.38	9748.18
767.134	9514.4
767.888	9407.96
768.642	9385.35
769.396	9378.1
770.149	9351.61
770.903	9320.74
771.656	9127.33
772.409	9181.89
773.163	9271.73
773.916	9233.33
774.669	9069.86
775.422	9035.17
776.175	9047.29
776.928	8908.33
777.681	8858.85
778.434	8923.72
779.186	8876.24
779.939	8571.22
780.692	8415.58
781.444	8460.9
782.197	8431.58
782.949	8044.06
783.701	7966.22
784.453	8068.67
785.205	8080.52
785.957	7750.82
786.709	7460.55
787.461	7486.17
788.213	7560.42
788.965	7459.14
789.716	7293.35
790.468	7173.82
791.22	6997.62
791.971	6888.18
792.722	6929.17
793.474	6766.25
794.225	6652.04
794.976	6483.02
795.727	6288.17
796.478	6308.32
797.229	6108.64
797.98	5889.52
798.731	5849.26
799.481	5746.16
800.232	5439.18
800.982	5364.35
801.733	5374.15
802.483	5213.17
803.233	5154.16
803.984	5166.88
804.734	5071.39
805.484	4999.63
806.234	4972.56
806.984	4888.8
807.734	4880.45
808.484	4834.49
809.233	4769.24
809.983	4696.4
810.732	4669.09
811.482	4721.23
812.231	4528.99
812.981	4373.92
813.73	4332.89
814.479	4288.59
815.228	4224.56
815.977	4135.48
816.726	4017.8
817.475	3886.55
818.224	3752.36
818.973	3699.05
819.721	3773.69
820.47	3694.35
821.219	3518.23
821.967	3482.3
822.715	3436.62
823.464	3283.94
824.212	3224.75
824.96	3182.81
825.708	3111.01
826.456	3041.24
827.204	2968.52
827.952	2924.34
828.7	2840.37
829.447	2744.17
830.195	2719.7
830.942	2712.85
831.69	2611.4
832.437	2515.47
833.185	2449.39
833.932	2441.13
834.679	2369.77
835.426	2286.74
836.173	2240.43
836.92	2149.43
837.667	2104.98
838.414	2064.04
839.16	2046.25
839.907	2016.18
840.654	1957.97
841.4	1913.2
842.147	1881.88
842.893	1830.4
843.639	1814.6
844.385	1817.27
845.131	1780.21
845.877	1771.52
846.623	1721.58
847.369	1669.46
848.115	1657.53
848.861	1671.67
849.607	1657.84
850.352	1638
851.098	1641.92
851.843	1674.34
852.588	1638.59
853.334	1547.39
854.079	1520.42
854.824	1537.14
855.569	1519.82
856.314	1522.7
857.059	1516.93
857.804	1496.43
858.549	1461.03
859.293	1456.77
860.038	1433.41
860.783	1408.44
861.527	1382
862.271	1364.75
863.016	1381.71
863.76	1362.73
864.504	1364.76
865.248	1326.57
865.992	1294.67
866.736	1312.13
867.48	1294.62
868.224	1266.29
868.968	1249.36
869.711	1232.98
870.455	1196.29
871.198	1201.65
871.942	1197.68
872.685	1196.34
873.428	1146.34
874.171	1111.82
874.915	1105.79
875.658	1074.22
876.401	1058.59
877.143	1035.36
877.886	1006.96
878.629	980.19
879.372	958.23
880.114	913.56
880.857	881.53
881.599	869.36
882.342	854.43
883.084	853.68
883.826	829.91
884.568	802.36
885.31	791.28
886.052	795.03
886.794	759.8
887.536	742.69
888.278	733.18
889.019	721.35
889.761	712.4
890.503	693.55
891.244	662.07
891.985	648.36
892.727	641.36
893.468	625.19
894.209	613.31
894.95	622.68
895.691	620.71
896.432	608.29
897.173	592.57
897.914	583.17
898.654	580.67
899.395	592.61
900.136	587.4
900.876	581.6
901.617	594.66
902.357	587.18
903.097	578.09
903.837	564.66
904.577	560.73
905.317	565.2
906.057	563.21
906.797	576.03
907.537	572.81
908.277	572.19
909.016	567.25
909.756	557.33
910.496	545.33
911.235	531.79
911.974	541.77
912.714	548.79
913.453	545.73
914.192	546.27
914.931	539.42
915.67	536.73
916.409	536.81
917.148	536.74
917.886	539.91
918.625	539.33
919.364	538.96
920.102	542.47
920.841	540
921.579	530.24
922.317	525.08
923.055	519.5
923.794	518.36
924.532	516.87
925.27	513.25
926.008	513.02
926.745	515.03
927.483	508.46
928.221	494.41
928.958	487.12
929.696	481.93
930.433	474.14
931.171	461.8
931.908	452.93
932.645	439.01
933.383	423.73
934.12	404.85
934.857	385.37
935.594	368.54
936.33	343.53
937.067	329.95
937.804	319.58
938.541	301.21
939.277	290.72
940.014	274.69
940.75	267.91
941.486	258.77
942.223	249.77
942.959	243.07
943.695	242
944.431	236.58
945.167	229.69
945.903	227.35
946.638	220.12
947.374	216.54
948.11	209.5
948.845	205.93
949.581	203.09
950.316	201.54
951.052	197.76
951.787	189.98
952.522	186.21
953.257	180.2
953.992	173.87
954.727	167.15
955.462	163.04
956.197	158.6
956.932	152.34
957.666	147.34
958.401	140.91
959.135	136.16
959.87	130.47
960.604	126.01
961.339	122.02
962.073	117.74
962.807	113.73
963.541	110.5
964.275	106.73
965.009	103.81
965.743	101.44
966.476	99.18
967.21	97.01
967.944	95.49
968.677	93.24
969.411	90.64
970.144	88.27
970.877	86.9
971.611	85.34
972.344	83.55
973.077	82.72
973.81	80.82
974.543	79.61
975.276	78.85
976.008	77.96
976.741	77.47
977.474	77.15
978.206	75.95
978.939	74.89
979.671	74.18
980.403	73.25
981.136	72.78
981.868	72.56
982.6	71.98
983.332	71.35
984.064	70.96
984.796	70.44
985.527	70.1
986.259	69.58
986.991	4.2
987.722	-0.66
988.454	-0.93
989.185	-1.46
989.917	38.35
990.648	37.71
991.379	38.16
992.11	38.23
992.841	38.28
993.572	38.51
994.303	69.49
995.034	68.98
995.764	68.71
996.495	68.65
997.226	68.65
997.956	68.88
998.687	-0.48
999.417	-0.28
1000.147	-0.18
1000.877	-0.22
