Data from QEPB00791_14-30-18-810.txt Node
Date: Mon Sep 02 14:30:18 MDT 2024
User: ecestudent
Spectrometer: QEPB0079
Trigger mode: 0
Integration Time (sec): 8.000000E-3
Scans to average: 100
Electric dark correction enabled: true
Nonlinearity correction enabled: true
Boxcar width: 0
XAxis mode: Wavelengths
Number of Pixels in Spectrum: 1044
>>>>>Begin Spectral Data<<<<<
198.864	-1.7
199.671	-1.96
200.477	-1.89
201.284	-1.65
202.091	-1.8
202.897	-1.75
203.704	-2.17
204.51	-1.88
205.317	-1.88
206.123	-1.84
206.929	-1.83
207.736	-1.78
208.542	-1.91
209.348	-1.84
210.154	-1.75
210.96	-1.59
211.765	-1.62
212.571	-1.73
213.377	-1.66
214.182	-1.74
214.988	-1.47
215.793	-1.7
216.599	-1.44
217.404	-1.62
218.209	-1.4
219.015	-1.68
219.82	-1.58
220.625	-1.72
221.43	-1.5
222.235	-1.94
223.039	-1.53
223.844	-1.59
224.649	-1.53
225.453	-1.43
226.258	-1.72
227.062	-1.47
227.867	-1.5
228.671	-1.16
229.475	-1.8
230.28	-1.32
231.084	-1.72
231.888	-1.49
232.692	-1.52
233.496	-1.61
234.299	-1.46
235.103	-1.61
235.907	-1.16
236.71	-1.33
237.514	-1.46
238.317	-1.4
239.121	-1.33
239.924	-1.53
240.727	-1.11
241.531	-1.47
242.334	-1.25
243.137	-1.61
243.94	-1.27
244.743	-1.36
245.545	-1.44
246.348	-1.41
247.151	-1.17
247.954	-1.17
248.756	-1.33
249.559	-1.06
250.361	-1.1
251.163	-1.1
251.965	-1.1
252.768	-1.42
253.57	-0.98
254.372	-1.14
255.174	-1.28
255.976	-1.04
256.777	-1.12
257.579	-1.35
258.381	-1.08
259.183	-1.1
259.984	-1.27
260.786	-1.24
261.587	-0.98
262.388	-1.24
263.189	-1.01
263.991	-1.17
264.792	-1.01
265.593	-1.09
266.394	-1.04
267.195	-0.84
267.995	-1.29
268.796	-1.04
269.597	-1.18
270.397	-0.86
271.198	-1.2
271.998	-1.11
272.799	-1.01
273.599	-0.91
274.399	-0.7
275.2	-1.11
276	-0.72
276.8	-1.05
277.6	-0.76
278.4	-1.15
279.199	-0.65
279.999	-1.23
280.799	-1.07
281.598	-1.16
282.398	-1.02
283.197	-0.84
283.997	-1.05
284.796	-0.7
285.595	-0.85
286.395	-0.91
287.194	-0.97
287.993	-0.75
288.792	-0.82
289.59	-0.89
290.389	-0.83
291.188	-0.84
291.987	-0.79
292.785	-0.92
293.584	-0.78
294.382	-0.93
295.181	-0.74
295.979	-0.89
296.777	-0.83
297.575	-1.19
298.373	-0.69
299.171	-1.09
299.969	-0.74
300.767	-0.75
301.565	-0.54
302.363	-0.55
303.16	-0.96
303.958	-0.64
304.756	-0.8
305.553	-0.74
306.35	-0.92
307.148	-0.97
307.945	-0.72
308.742	-0.45
309.539	-0.86
310.336	-1.05
311.133	-1.1
311.93	-0.82
312.727	-0.73
313.524	-0.79
314.32	-0.75
315.117	-0.68
315.913	-0.65
316.71	-0.76
317.506	-0.73
318.302	-0.8
319.099	-0.47
319.895	-0.83
320.691	-0.57
321.487	-0.54
322.283	-0.75
323.079	-0.48
323.874	-0.88
324.67	-0.47
325.466	-0.72
326.261	-0.53
327.057	-0.71
327.852	-0.54
328.648	-0.72
329.443	-0.7
330.238	-0.71
331.033	-0.55
331.828	-0.5
332.623	-0.68
333.418	-0.74
334.213	-0.99
335.008	-0.52
335.803	-0.84
336.597	-0.57
337.392	-0.69
338.186	-0.65
338.981	-0.69
339.775	-0.57
340.57	-0.5
341.364	-0.71
342.158	-0.4
342.952	-0.69
343.746	-0.54
344.54	-0.84
345.334	-0.44
346.127	-0.81
346.921	-0.63
347.715	-0.58
348.508	-0.76
349.302	-0.33
350.095	-0.71
350.889	-0.55
351.682	-0.42
352.475	-0.39
353.268	-0.75
354.061	-0.32
354.854	-0.66
355.647	-0.52
356.44	-0.47
357.233	-0.75
358.025	-0.48
358.818	-0.49
359.611	-0.66
360.403	-0.48
361.195	-0.26
361.988	-0.58
362.78	-0.48
363.572	-0.61
364.364	-0.62
365.156	-0.58
365.948	-0.48
366.74	-0.33
367.532	-0.63
368.324	-0.34
369.116	-0.4
369.907	-0.66
370.699	-0.63
371.49	-0.52
372.282	-0.7
373.073	-0.61
373.864	-0.38
374.655	-0.58
375.446	-0.55
376.237	-0.57
377.028	-0.32
377.819	-0.63
378.61	-0.49
379.401	-0.5
380.192	-0.4
380.982	-0.4
381.773	-0.24
382.563	-0.61
383.354	-0.34
384.144	-0.4
384.934	-0.59
385.724	-0.24
386.514	-0.58
387.304	-0.29
388.094	-0.31
388.884	-0.31
389.674	-0.52
390.464	-0.42
391.253	-0.49
392.043	-0.5
392.832	-0.28
393.622	-0.55
394.411	-0.36
395.201	-0.54
395.99	-0.49
396.779	-0.44
397.568	-0.2
398.357	-0.75
399.146	-0.36
399.935	-0.36
400.724	-0.23
401.512	-0.34
402.301	-0.44
403.09	-0.24
403.878	-0.34
404.667	-0.31
405.455	-0.29
406.243	-0.26
407.031	-0.48
407.82	-0.53
408.608	-0.36
409.396	-0.66
410.184	-0.52
410.971	-0.39
411.759	-0.45
412.547	-0.29
413.334	-0.24
414.122	-0.07
414.91	-0.37
415.697	-0.52
416.484	-0.51
417.272	-0.34
418.059	-0.41
418.846	-0.34
419.633	-0.42
420.42	-0.38
421.207	-0.29
421.994	-0.51
422.78	-0.52
423.567	-0.25
424.354	-0.36
425.14	-0.36
425.927	-0.4
426.713	-0.55
427.499	-0.6
428.286	-0.31
429.072	-0.46
429.858	-0.28
430.644	-0.33
431.43	-0.32
432.216	-0.31
433.002	-0.34
433.787	-0.46
434.573	-0.59
435.359	-0.29
436.144	-0.39
436.93	-0.54
437.715	-0.32
438.5	-0.33
439.286	-0.2
440.071	-0.37
440.856	-0.52
441.641	-0.24
442.426	-0.11
443.211	-0.54
443.996	-0.24
444.78	-0.44
445.565	-0.2
446.35	-0.58
447.134	-0.42
447.919	-0.51
448.703	-0.46
449.487	-0.29
450.271	-0.53
451.056	-0.32
451.84	-0.36
452.624	-0.28
453.408	-0.64
454.191	-0.33
454.975	-0.54
455.759	-0.09
456.543	-0.54
457.326	-0.28
458.11	-0.53
458.893	-0.46
459.676	-0.38
460.46	-0.44
461.243	-0.26
462.026	-0.61
462.809	-0.46
463.592	-0.42
464.375	-0.44
465.158	-0.51
465.941	-0.04
466.723	-0.69
467.506	-0.15
468.288	-0.19
469.071	-0.37
469.853	-0.16
470.636	-0.46
471.418	-0.18
472.2	-0.31
472.982	-0.42
473.764	-0.61
474.546	-0.25
475.328	-0.42
476.11	-0.5
476.892	-0.32
477.673	-0.22
478.455	-0.11
479.236	-0.32
480.018	-0.36
480.799	-0.3
481.581	0
482.362	-0.49
483.143	-0.44
483.924	-0.41
484.705	-0.19
485.486	-0.45
486.267	-0.15
487.048	-0.41
487.828	-0.44
488.609	-0.16
489.39	-0.54
490.17	-0.03
490.951	-0.4
491.731	-0.16
492.511	-0.56
493.292	-0.37
494.072	-0.3
494.852	-0.22
495.632	-0.36
496.412	-0.55
497.192	-0.35
497.971	-0.29
498.751	-0.46
499.531	-0.61
500.31	-0.16
501.09	-0.4
501.869	-0.17
502.648	-0.4
503.428	-0.12
504.207	-0.34
504.986	-0.28
505.765	-0.26
506.544	-0.07
507.323	-0.3
508.102	-0.48
508.881	-0.44
509.659	-0.57
510.438	-0.3
511.216	-0.58
511.995	0
512.773	-0.26
513.552	-0.11
514.33	-0.29
515.108	-0.18
515.886	0.09
516.664	-0.3
517.442	0.04
518.22	-0.39
518.998	-0.2
519.775	-0.34
520.553	-0.42
521.331	-0.36
522.108	-0.35
522.886	-0.2
523.663	-0.38
524.44	-0.42
525.218	-0.63
525.995	-0.36
526.772	-0.36
527.549	-0.11
528.326	-0.4
529.103	-0.3
529.879	-0.25
530.656	-0.26
531.433	-0.3
532.209	-0.3
532.986	-0.26
533.762	-0.61
534.539	-0.21
535.315	-0.37
536.091	-0.24
536.867	-0.56
537.643	-0.31
538.419	-0.62
539.195	-0.32
539.971	-0.26
540.747	-0.15
541.522	-0.11
542.298	-0.32
543.074	0.01
543.849	-0.28
544.624	-0.13
545.4	-0.33
546.175	-0.24
546.95	-0.26
547.725	-0.3
548.5	-0.13
549.275	-0.1
550.05	-0.25
550.825	-0.32
551.6	-0.11
552.374	-0.23
553.149	-0.19
553.923	-0.26
554.698	-0.05
555.472	-0.36
556.247	-0.29
557.021	-0.22
557.795	-0.21
558.569	-0.23
559.343	-0.18
560.117	-0.21
560.891	-0.31
561.665	-0.05
562.438	-0.15
563.212	-0.35
563.985	-0.25
564.759	-0.23
565.532	-0.27
566.306	-0.32
567.079	-0.29
567.852	-0.08
568.625	-0.07
569.398	-0.3
570.171	-0.21
570.944	-0.5
571.717	-0.29
572.49	-0.34
573.262	-0.27
574.035	-0.31
574.808	-0.19
575.58	-0.26
576.352	-0.24
577.125	-0.2
577.897	-0.48
578.669	-0.48
579.441	-0.31
580.213	-0.1
580.985	-0.42
581.757	-0.16
582.529	-0.27
583.301	-0.42
584.072	-0.47
584.844	-0.34
585.615	-0.45
586.387	-0.13
587.158	-0.16
587.929	-0.1
588.701	-0.01
589.472	-0.23
590.243	-0.26
591.014	-0.17
591.785	-0.12
592.556	-0.37
593.326	-0.32
594.097	-0.42
594.868	-0.33
595.638	-0.3
596.409	-0.31
597.179	-0.38
597.949	-0.47
598.72	-0.37
599.49	-0.35
600.26	-0.33
601.03	-0.34
601.8	-0.15
602.57	-0.27
603.34	-0.37
604.109	-0.21
604.879	-0.37
605.649	-0.06
606.418	-0.5
607.188	-0.25
607.957	-0.5
608.726	-0.26
609.496	-0.22
610.265	-0.09
611.034	-0.25
611.803	-0.14
612.572	-0.47
613.341	-0.22
614.109	-0.17
614.878	-0.02
615.647	-0.1
616.415	-0.38
617.184	-0.06
617.952	-0.11
618.721	-0.37
619.489	-0.28
620.257	-0.4
621.025	-0.26
621.793	-0.33
622.561	-0.26
623.329	-0.25
624.097	-0.24
624.865	-0.34
625.632	-0.31
626.4	-0.14
627.168	-0.39
627.935	-0.41
628.702	-0.33
629.47	-0.32
630.237	-0.19
631.004	-0.21
631.771	-0.54
632.538	-0.01
633.305	-0.34
634.072	-0.24
634.839	-0.39
635.606	-0.37
636.372	-0.22
637.139	-0.16
637.905	-0.55
638.672	-0.37
639.438	-0.22
640.204	-0.27
640.971	-0.14
641.737	-0.28
642.503	-0.07
643.269	-0.23
644.035	-0.14
644.8	-0.21
645.566	-0.17
646.332	-0.21
647.097	-0.09
647.863	-0.52
648.629	-0.14
649.394	-0.06
650.159	-0.03
650.924	-0.19
651.69	-0.39
652.455	-0.11
653.22	-0.19
653.985	-0.19
654.75	-0.25
655.514	-0.1
656.279	-0.27
657.044	-0.29
657.808	-0.16
658.573	-0.26
659.337	-0.23
660.102	-0.38
660.866	-0.3
661.63	-0.46
662.394	-0.22
663.158	-0.31
663.922	-0.26
664.686	-0.01
665.45	0.03
666.214	-0.33
666.978	-0.44
667.741	-0.2
668.505	-0.55
669.268	-0.3
670.032	-0.32
670.795	0.01
671.558	-0.38
672.321	-0.52
673.084	-0.33
673.847	-0.18
674.61	-0.15
675.373	-0.19
676.136	-0.12
676.899	-0.41
677.662	-0.14
678.424	-0.37
679.187	-0.36
679.949	-0.22
680.711	-0.33
681.474	-0.25
682.236	-0.22
682.998	-0.37
683.76	-0.11
684.522	-0.29
685.284	-0.47
686.046	-0.21
686.808	-0.33
687.569	-0.19
688.331	-0.04
689.092	-0.22
689.854	-0.25
690.615	-0.04
691.377	-0.13
692.138	-0.39
692.899	-0.31
693.66	-0.36
694.421	-0.26
695.182	-0.38
695.943	-0.11
696.704	-0.3
697.465	-0.21
698.225	-0.49
698.986	-0.12
699.746	-0.32
700.507	-0.26
701.267	-0.2
702.027	-0.01
702.788	-0.22
703.548	-0.11
704.308	-0.21
705.068	-0.19
705.828	-0.22
706.588	-0.63
707.347	-0.35
708.107	-0.51
708.867	-0.2
709.626	-0.27
710.386	-0.18
711.145	0.11
711.904	-0.12
712.664	-0.27
713.423	-0.41
714.182	-0.05
714.941	-0.36
715.7	-0.21
716.459	-0.19
717.218	-0.24
717.976	-0.29
718.735	-0.45
719.494	-0.09
720.252	-0.22
721.011	-0.17
721.769	-0.32
722.527	-0.21
723.285	-0.23
724.044	-0.06
724.802	-0.24
725.56	-0.04
726.317	0.05
727.075	-0.2
727.833	-0.33
728.591	-0.23
729.348	-0.16
730.106	-0.09
730.863	-0.18
731.621	-0.35
732.378	-0.25
733.135	-0.49
733.893	-0.15
734.65	0.02
735.407	-0.18
736.164	-0.06
736.92	-0.31
737.677	0.04
738.434	-0.37
739.191	-0.04
739.947	-0.09
740.704	-0.22
741.46	-0.48
742.216	-0.31
742.973	-0.24
743.729	-0.23
744.485	-0.29
745.241	-0.34
745.997	-0.27
746.753	-0.41
747.509	-0.18
748.265	-0.12
749.02	-0.11
749.776	-0.28
750.531	-0.01
751.287	-0.21
752.042	-0.17
752.798	-0.19
753.553	-0.34
754.308	-0.15
755.063	-0.1
755.818	-0.41
756.573	-0.3
757.328	-0.22
758.083	-0.37
758.837	-0.08
759.592	-0.07
760.347	-0.29
761.101	-0.36
761.855	0.13
762.61	-0.06
763.364	-0.05
764.118	-0.28
764.872	-0.36
765.626	-0.19
766.38	-0.49
767.134	-0.47
767.888	-0.51
768.642	-0.33
769.396	-0.49
770.149	-0.05
770.903	-0.29
771.656	-0.45
772.409	-0.4
773.163	-0.04
773.916	-0.22
774.669	0.16
775.422	-0.23
776.175	-0.19
776.928	-0.27
777.681	-0.31
778.434	-0.18
779.186	-0.32
779.939	-0.08
780.692	-0.06
781.444	-0.17
782.197	-0.22
782.949	-0.2
783.701	-0.4
784.453	-0.32
785.205	-0.25
785.957	-0.27
786.709	-0.15
787.461	-0.09
788.213	-0.11
788.965	0.01
789.716	-0.33
790.468	-0.25
791.22	-0.32
791.971	-0.3
792.722	-0.36
793.474	-0.33
794.225	-0.35
794.976	-0.2
795.727	-0.15
796.478	-0.08
797.229	-0.46
797.98	-0.17
798.731	-0.28
799.481	-0.16
800.232	-0.18
800.982	-0.34
801.733	-0.3
802.483	-0.24
803.233	-0.34
803.984	-0.36
804.734	-0.25
805.484	-0.39
806.234	-0.16
806.984	-0.35
807.734	-0.17
808.484	-0.16
809.233	-0.11
809.983	-0.07
810.732	-0.41
811.482	-0.28
812.231	-0.35
812.981	-0.38
813.73	-0.14
814.479	-0.1
815.228	-0.38
815.977	-0.07
816.726	-0.32
817.475	-0.15
818.224	-0.03
818.973	-0.24
819.721	-0.38
820.47	-0.39
821.219	-0.2
821.967	-0.15
822.715	0.11
823.464	-0.3
824.212	-0.08
824.96	-0.33
825.708	-0.4
826.456	-0.15
827.204	-0.11
827.952	-0.24
828.7	-0.22
829.447	-0.07
830.195	-0.51
830.942	-0.12
831.69	-0.22
832.437	-0.11
833.185	-0.19
833.932	0.06
834.679	-0.25
835.426	-0.17
836.173	-0.18
836.92	-0.2
837.667	-0.03
838.414	-0.33
839.16	-0.05
839.907	-0.3
840.654	-0.35
841.4	-0.32
842.147	-0.19
842.893	-0.29
843.639	-0.19
844.385	-0.44
845.131	-0.2
845.877	-0.1
846.623	-0.07
847.369	-0.18
848.115	-0.32
848.861	-0.24
849.607	-0.25
850.352	-0.09
851.098	-0.24
851.843	-0.18
852.588	-0.17
853.334	-0.3
854.079	-0.25
854.824	-0.37
855.569	0.04
856.314	-0.48
857.059	0.03
857.804	-0.22
858.549	-0.03
859.293	-0.35
860.038	-0.05
860.783	-0.32
861.527	-0.34
862.271	-0.12
863.016	-0.22
863.76	-0.15
864.504	-0.41
865.248	-0.23
865.992	-0.37
866.736	-0.18
867.48	-0.06
868.224	-0.06
868.968	-0.25
869.711	0.12
870.455	-0.08
871.198	-0.16
871.942	-0.22
872.685	-0.25
873.428	-0.06
874.171	-0.09
874.915	-0.11
875.658	-0.05
876.401	-0.1
877.143	-0.37
877.886	-0.24
878.629	-0.15
879.372	-0.22
880.114	-0.27
880.857	-0.14
881.599	-0.16
882.342	-0.24
883.084	-0.25
883.826	-0.16
884.568	-0.11
885.31	-0.15
886.052	-0.36
886.794	-0.33
887.536	-0.17
888.278	-0.28
889.019	-0.39
889.761	-0.16
890.503	-0.3
891.244	-0.09
891.985	-0.4
892.727	0.24
893.468	-0.4
894.209	-0.25
894.95	-0.26
895.691	-0.05
896.432	-0.1
897.173	-0.14
897.914	-0.11
898.654	-0.29
899.395	-0.21
900.136	-0.33
900.876	-0.12
901.617	-0.29
902.357	-0.18
903.097	-0.09
903.837	-0.29
904.577	-0.14
905.317	-0.16
906.057	-0.04
906.797	-0.31
907.537	-0.11
908.277	-0.38
909.016	0.02
909.756	-0.48
910.496	-0.21
911.235	-0.26
911.974	-0.2
912.714	-0.24
913.453	-0.2
914.192	-0.13
914.931	-0.17
915.67	-0.17
916.409	-0.22
917.148	-0.1
917.886	-0.33
918.625	0
919.364	-0.22
920.102	0.02
920.841	-0.49
921.579	0.05
922.317	-0.28
923.055	-0.16
923.794	-0.11
924.532	-0.56
925.27	-0.27
926.008	-0.18
926.745	-0.04
927.483	-0.22
928.221	-0.06
928.958	-0.01
929.696	0.06
930.433	-0.24
931.171	-0.05
931.908	0.02
932.645	-0.41
933.383	-0.03
934.12	-0.42
934.857	-0.3
935.594	-0.04
936.33	-0.22
937.067	-0.2
937.804	-0.12
938.541	-0.21
939.277	-0.24
940.014	-0.17
940.75	-0.21
941.486	-0.09
942.223	-0.2
942.959	-0.14
943.695	-0.33
944.431	-0.03
945.167	-0.27
945.903	-0.08
946.638	-0.2
947.374	-0.28
948.11	-0.19
948.845	-0.06
949.581	-0.3
950.316	-0.18
951.052	0.08
951.787	-0.33
952.522	-0.01
953.257	-0.28
953.992	-0.1
954.727	-0.33
955.462	0
956.197	-0.29
956.932	-0.17
957.666	-0.11
958.401	-0.31
959.135	-0.13
959.87	-0.55
960.604	-0.28
961.339	-0.3
962.073	-0.15
962.807	-0.05
963.541	-0.19
964.275	-0.01
965.009	-0.05
965.743	0.04
966.476	-0.19
967.21	-0.24
967.944	-0.16
968.677	-0.4
969.411	-0.08
970.144	-0.17
970.877	-0.1
971.611	-0.32
972.344	-0.27
973.077	-0.15
973.81	0.04
974.543	-0.14
975.276	-0.06
976.008	-0.23
976.741	-0.16
977.474	-0.17
978.206	0.02
978.939	-0.28
979.671	-0.03
980.403	0.03
981.136	-0.32
981.868	-0.3
982.6	-0.3
983.332	-0.44
984.064	-0.13
984.796	-0.32
985.527	-0.12
986.259	-0.33
986.991	3.86
987.722	-0.41
988.454	-0.85
989.185	-0.86
989.917	-1.65
990.648	-2.27
991.379	-2.04
992.11	-1.79
992.841	-1.7
993.572	-1.61
994.303	-0.17
995.034	0.04
995.764	-0.03
996.495	-0.1
997.226	0.05
997.956	-0.2
998.687	-0.32
999.417	-0.66
1000.147	-0.4
1000.877	-0.34
