Data from QEPB00791_14-29-36-290.txt Node
Date: Mon Sep 02 14:29:36 MDT 2024
User: ecestudent
Spectrometer: QEPB0079
Trigger mode: 0
Integration Time (sec): 8.000000E-3
Scans to average: 100
Electric dark correction enabled: true
Nonlinearity correction enabled: true
Boxcar width: 0
XAxis mode: Wavelengths
Number of Pixels in Spectrum: 1044
>>>>>Begin Spectral Data<<<<<
198.864	49.45
199.671	50.13
200.477	50.13
201.284	50.58
202.091	51.03
202.897	50.63
203.704	50.98
204.51	51.31
205.317	51.51
206.123	51.7
206.929	51.88
207.736	51.7
208.542	52.67
209.348	52.46
210.154	52.68
210.96	52.69
211.765	53.08
212.571	53.07
213.377	53.25
214.182	53.65
214.988	54.11
215.793	54.33
216.599	54.24
217.404	54.46
218.209	54.71
219.015	55.32
219.82	55.86
220.625	55.87
221.43	56.15
222.235	56.39
223.039	56.53
223.844	56.75
224.649	57.86
225.453	57.36
226.258	57.98
227.062	58.41
227.867	58.36
228.671	58.78
229.475	59.62
230.28	59.83
231.084	59.8
231.888	60.62
232.692	60.79
233.496	61.18
234.299	61.27
235.103	61.89
235.907	62.27
236.71	62.9
237.514	63.52
238.317	63.72
239.121	64.07
239.924	64.94
240.727	65.84
241.531	65.86
242.334	66.59
243.137	67.38
243.94	68.59
244.743	68.7
245.545	69.48
246.348	70.05
247.151	71.4
247.954	72.15
248.756	72.41
249.559	73.75
250.361	74.25
251.163	75.93
251.965	76.83
252.768	77.53
253.57	78.2
254.372	79.35
255.174	79.65
255.976	80.67
256.777	81.4
257.579	82.32
258.381	83.35
259.183	83.87
259.984	84.8
260.786	85.61
261.587	87.36
262.388	87.44
263.189	88.76
263.991	89.17
264.792	90.61
265.593	91.37
266.394	93.11
267.195	94.21
267.995	95.77
268.796	97.22
269.597	98.47
270.397	100.58
271.198	101.69
271.998	103.29
272.799	105.57
273.599	107.51
274.399	109.16
275.2	110.97
276	113.74
276.8	115.34
277.6	118.48
278.4	120.29
279.199	123.11
279.999	125.94
280.799	128.76
281.598	131.62
282.398	135.23
283.197	138.71
283.997	142.01
284.796	145.85
285.595	149.77
286.395	155.06
287.194	159.27
287.993	163.78
288.792	168.45
289.59	174.22
290.389	180.62
291.188	187.33
291.987	195.19
292.785	202.91
293.584	212.52
294.382	223.66
295.181	235.12
295.979	247.72
296.777	260.68
297.575	276.08
298.373	291.81
299.171	310.69
299.969	331.57
300.767	354.2
301.565	376.89
302.363	399.12
303.16	423.07
303.958	446.6
304.756	472.49
305.553	502.96
306.35	537.81
307.148	578.69
307.945	625.92
308.742	679.32
309.539	734.47
310.336	794.58
311.133	854.26
311.93	916.38
312.727	988.97
313.524	1066.64
314.32	1132.33
315.117	1172.83
315.913	1196.64
316.71	1209.87
317.506	1221.45
318.302	1237.56
319.099	1259.57
319.895	1274.71
320.691	1289.78
321.487	1298.85
322.283	1307.15
323.079	1318.32
323.874	1339.02
324.67	1355.49
325.466	1380.69
326.261	1426.24
327.057	1481.36
327.852	1536.67
328.648	1606.13
329.443	1694.09
330.238	1809.33
331.033	1975.04
331.828	2177.1
332.623	2382.45
333.418	2537.9
334.213	2598.52
335.008	2573.35
335.803	2551.77
336.597	2569.32
337.392	2631.54
338.186	2737.48
338.981	2863.06
339.775	3013.86
340.57	3198.95
341.364	3415.82
342.158	3671.18
342.952	3941.98
343.746	4187.16
344.54	4425.28
345.334	4654.72
346.127	4891.72
346.921	5096.08
347.715	5259.33
348.508	5414.38
349.302	5556.3
350.095	5721.66
350.889	5924.64
351.682	6121.56
352.475	6349.84
353.268	6560.48
354.061	6722.78
354.854	6915.46
355.647	7112.44
356.44	7327.5
357.233	7554.63
358.025	7857.94
358.818	8322.12
359.611	9020.42
360.403	10146.07
361.195	11823.45
361.988	13760.99
362.78	15852.43
363.572	17545.9
364.364	18894.49
365.156	20323.59
365.948	21306.24
366.74	21522.15
367.532	21229.3
368.324	20703.51
369.116	19971.27
369.907	19109.09
370.699	18258.87
371.49	17607.56
372.282	16952.59
373.073	16351.09
373.864	15768.8
374.655	15297.44
375.446	14989.86
376.237	14796.68
377.028	14647.86
377.819	14542.15
378.61	14422.93
379.401	14285.28
380.192	14239.73
380.982	14176.07
381.773	14115.73
382.563	14013.37
383.354	14021.12
384.144	14042.01
384.934	14099.87
385.724	14183.58
386.514	14262.83
387.304	14438.88
388.094	14557.21
388.884	14650.93
389.674	14723.96
390.464	14837.87
391.253	14913.9
392.043	15077.42
392.832	15282.89
393.622	15523.32
394.411	15776.92
395.201	16087.52
395.99	16439.88
396.779	16882.26
397.568	17469.43
398.357	18106.88
399.146	18894.98
399.935	20028.27
400.724	22026.28
401.512	26303.53
402.301	34010.44
403.09	44407.43
403.878	53329.79
404.667	55764.39
405.455	52502.51
406.243	47557.65
407.031	42859.41
407.82	38480.24
408.608	35357.98
409.396	33429.74
410.184	32376.35
410.971	31733.11
411.759	31049.35
412.547	29932.38
413.334	28684.29
414.122	27732.57
414.91	27154.67
415.697	26798.74
416.484	26708.81
417.272	26891.42
418.059	27032.58
418.846	27301.47
419.633	27855.55
420.42	28392.5
421.207	29005.16
421.994	29737.84
422.78	30371.44
423.567	30966.93
424.354	31622.93
425.14	32283.15
425.927	33089.14
426.713	33968.65
427.499	35224.6
428.286	37014.61
429.072	39020.2
429.858	40575.21
430.644	41385.18
431.43	42304.74
432.216	44346.05
433.002	49871.36
433.787	60443.19
434.573	63635.27
435.359	63635.27
436.144	63635.27
436.93	63635.27
437.715	63635.27
438.5	63635.27
439.286	63635.27
440.071	56503.12
440.856	51281.06
441.641	47296.76
442.426	43956.68
443.211	41450.77
443.996	39512.19
444.78	38065.49
445.565	36824.02
446.35	35710.63
447.134	34360.21
447.919	33078.06
448.703	31731.41
449.487	30351.61
450.271	29080.95
451.056	28037.82
451.84	27110
452.624	26415.24
453.408	26097.23
454.191	25890.24
454.975	25794.29
455.759	25615.87
456.543	25395.57
457.326	25038.31
458.11	24325.69
458.893	23497.45
459.676	22767.74
460.46	22248.08
461.243	21749.95
462.026	21391.6
462.809	21178.16
463.592	21106.2
464.375	21127.61
465.158	21248.39
465.941	21545.93
466.723	21808.75
467.506	22149.44
468.288	22478.2
469.071	22658.28
469.853	22886.66
470.636	23260.21
471.418	23580.92
472.2	23884.33
472.982	23968.66
473.764	23727.66
474.546	23300.13
475.328	22836.55
476.11	22663.53
476.892	22403.23
477.673	22185.53
478.455	22054.41
479.236	21996.39
480.018	22326.01
480.799	22805.95
481.581	23151.78
482.362	23704.75
483.143	24468.46
483.924	25266.59
484.705	25821.8
485.486	25957.47
486.267	25713.91
487.048	25536.91
487.828	25298.25
488.609	24718.79
489.39	24173.02
490.17	23545.35
490.951	22732.07
491.731	21698.1
492.511	20538.35
493.292	19905.65
494.072	19744.29
494.852	19626.74
495.632	19466.08
496.412	19122.39
497.192	18875.33
497.971	18615.18
498.751	18512.89
499.531	18382.43
500.31	18473.92
501.09	18365.82
501.869	18232.7
502.648	18149.87
503.428	18034.22
504.207	17805.99
504.986	17525.07
505.765	17300.3
506.544	17171.87
507.323	16961.22
508.102	16800.44
508.881	16647.97
509.659	16605.17
510.438	16615.7
511.216	16533.37
511.995	16530.63
512.773	16465
513.552	16390.56
514.33	16372.32
515.108	16396.47
515.886	16408.94
516.664	16507.54
517.442	16524.62
518.22	16544.73
518.998	16601.98
519.775	16644.77
520.553	16726.48
521.331	16801.98
522.108	16781.95
522.886	16811.77
523.663	16902.5
524.44	16985.73
525.218	17089.1
525.995	17296.97
526.772	17558.38
527.549	17831.46
528.326	18171.97
529.103	18634.86
529.879	19504.77
530.656	20595.08
531.433	21770.43
532.209	22990.79
532.986	23924.38
533.762	24808.35
534.539	25800.11
535.315	26979.64
536.091	28499.43
536.867	30189.18
537.643	32115.38
538.419	33221.77
539.195	34251.81
539.971	35321.7
540.747	36764.19
541.522	38763.93
542.298	42376.22
543.074	51270.59
543.849	63635.27
544.624	63635.27
545.4	63635.27
546.175	63635.27
546.95	63635.27
547.725	63635.27
548.5	63635.27
549.275	63635.27
550.05	63635.27
550.825	63635.27
551.6	63635.27
552.374	63635.27
553.149	63635.27
553.923	63635.27
554.698	63635.27
555.472	63631.07
556.247	50947.67
557.021	46799.52
557.795	44507.97
558.569	42988
559.343	41626.56
560.117	40334.3
560.891	39023.06
561.665	37848.73
562.438	36391.57
563.212	34820.52
563.985	33940.51
564.759	32859.05
565.532	32031.48
566.306	32043.12
567.079	32555.24
567.852	33764.47
568.625	35925.69
569.398	38857.21
570.171	42753.77
570.944	47205.85
571.717	52669.02
572.49	59236.04
573.262	63635.27
574.035	63635.27
574.808	63635.27
575.58	63635.27
576.352	63635.27
577.125	63635.27
577.897	63635.27
578.669	63635.27
579.441	63635.27
580.213	59725.96
580.985	55613.8
581.757	53084.85
582.529	50105.84
583.301	47318.08
584.072	44635.43
584.844	42292.69
585.615	40456.18
586.387	38621.09
587.158	36934.91
587.929	35535.31
588.701	34441.82
589.472	33156.23
590.243	32177.51
591.014	31442.87
591.785	30676.9
592.556	29977.46
593.326	29615.6
594.097	29055.36
594.868	28028.17
595.638	27053.68
596.409	26139.77
597.179	24958.13
597.949	23951.56
598.72	23627.43
599.49	23271.94
600.26	22608.84
601.03	22182.12
601.8	21693.13
602.57	21232.49
603.34	20884.65
604.109	20667.73
604.879	20305.61
605.649	20106.02
606.418	20151.07
607.188	19862.15
607.957	19562.26
608.726	19445.92
609.496	19351.08
610.265	19265.62
611.034	19333.91
611.803	19191.96
612.572	19184.79
613.341	18924.86
614.109	18873.07
614.878	18566.4
615.647	18295.9
616.415	18114.82
617.184	17962.45
617.952	17765.82
618.721	17512.73
619.489	17383.4
620.257	17107.99
621.025	17001.82
621.793	16949.08
622.561	16785.17
623.329	16612.15
624.097	16684.02
624.865	16630.51
625.632	16418.17
626.4	16338.21
627.168	16528.24
627.935	16512.44
628.702	16676.71
629.47	16573.06
630.237	16713.07
631.004	16800.25
631.771	16862.9
632.538	16830.42
633.305	16771.52
634.072	16597.63
634.839	16686.48
635.606	16724.76
636.372	16403.19
637.139	16296.61
637.905	16294.93
638.672	16141.56
639.438	16047.61
640.204	15952
640.971	15915.57
641.737	15836.28
642.503	16025.76
643.269	15876.75
644.035	15694.39
644.8	15653.57
645.566	15377.27
646.332	15539.95
647.097	15592.23
647.863	15499.32
648.629	15603.54
649.394	15588.77
650.159	15510.82
650.924	15540.86
651.69	15592.19
652.455	15651.16
653.22	15565.06
653.985	15490.97
654.75	15504.69
655.514	15440.23
656.279	15402.76
657.044	15338.8
657.808	15366.15
658.573	15460.8
659.337	15358.88
660.102	15184.08
660.866	15334.2
661.63	15267.77
662.394	15160
663.158	15231.18
663.922	15216.86
664.686	15091.44
665.45	15023.94
666.214	15006.94
666.978	14994.16
667.741	15003.87
668.505	14981.53
669.268	15004.14
670.032	15116.69
670.795	15006.19
671.558	15136.8
672.321	15121.06
673.084	15137.49
673.847	15199.76
674.61	15114.98
675.373	15213.5
676.136	15143.81
676.899	15134.05
677.662	15121.94
678.424	15110.65
679.187	15005.87
679.949	15050.58
680.711	15055.88
681.474	15073.87
682.236	15186.82
682.998	15177.52
683.76	15074.53
684.522	14969.62
685.284	15093.88
686.046	15046.06
686.808	15152.68
687.569	15070.59
688.331	14876.19
689.092	14905.61
689.854	14953.28
690.615	14936.07
691.377	15045.31
692.138	15052.18
692.899	15043.9
693.66	14959.8
694.421	15015.7
695.182	14953.99
695.943	14920.8
696.704	14866.91
697.465	15078.12
698.225	15110.79
698.986	14963.83
699.746	14782.18
700.507	14569.86
701.267	14750.38
702.027	14700.03
702.788	14766.98
703.548	14565.14
704.308	14626.92
705.068	14537.59
705.828	14440.02
706.588	14618.71
707.347	14551.53
708.107	14443.82
708.867	14349.33
709.626	14248.74
710.386	14509.18
711.145	14686.04
711.904	14443.28
712.664	14237.2
713.423	14326.65
714.182	14381.21
714.941	14038.12
715.7	13923.31
716.459	14031.46
717.218	13763.38
717.976	13710.76
718.735	13618.41
719.494	13626.11
720.252	13622.66
721.011	13429.78
721.769	13466.81
722.527	13206.67
723.285	13124.69
724.044	13380.62
724.802	13390.95
725.56	13451.79
726.317	13323.85
727.075	13360.34
727.833	13218.47
728.591	13166.61
729.348	13094
730.106	12843.72
730.863	12569.46
731.621	12434.2
732.378	12482.25
733.135	12250.9
733.893	12120.68
734.65	12060.14
735.407	11886.74
736.164	11769.15
736.92	11738.58
737.677	11415.21
738.434	11436.08
739.191	11462.38
739.947	11415.3
740.704	11235.57
741.46	11211.62
742.216	11150.92
742.973	11238.09
743.729	11367.51
744.485	11164.22
745.241	11183.06
745.997	11236.11
746.753	11084
747.509	11156.56
748.265	11115.15
749.02	10979.03
749.776	11026.53
750.531	10817.23
751.287	10505.2
752.042	10509.93
752.798	10602.75
753.553	10558.86
754.308	10562.88
755.063	10365.77
755.818	10188.27
756.573	10278.82
757.328	10227.25
758.083	9959.97
758.837	10096.89
759.592	10118.18
760.347	10074.49
761.101	9923.19
761.855	9948.09
762.61	9936.46
763.364	9956.25
764.118	9845.42
764.872	9764.67
765.626	9712.77
766.38	9624.9
767.134	9402.69
767.888	9280.46
768.642	9254.56
769.396	9254.26
770.149	9243.28
770.903	9208.64
771.656	9017.19
772.409	9072.1
773.163	9168.85
773.916	9114.31
774.669	8960.98
775.422	8924.2
776.175	8932.63
776.928	8779.16
777.681	8747.62
778.434	8818.86
779.186	8763.44
779.939	8449.44
780.692	8301.84
781.444	8363.34
782.197	8341.57
782.949	7952.17
783.701	7869.36
784.453	7954.54
785.205	7977.05
785.957	7659.15
786.709	7365.69
787.461	7388.43
788.213	7455.4
788.965	7367.82
789.716	7200.68
790.468	7086.66
791.22	6901.5
791.971	6795.28
792.722	6840
793.474	6680.34
794.225	6569.28
794.976	6398.8
795.727	6205.16
796.478	6230.57
797.229	6034.46
797.98	5809.56
798.731	5775.86
799.481	5675.72
800.232	5377.17
800.982	5292.49
801.733	5304.81
802.483	5148.77
803.233	5091.19
803.984	5094.78
804.734	5008.37
805.484	4937.19
806.234	4908.51
806.984	4825.09
807.734	4821.18
808.484	4775.95
809.233	4708.62
809.983	4634.49
810.732	4610.13
811.482	4663.37
812.231	4465.17
812.981	4317.46
813.73	4276.47
814.479	4236.71
815.228	4163.24
815.977	4074.46
816.726	3969.47
817.475	3837.65
818.224	3697.24
818.973	3642.72
819.721	3720.4
820.47	3642.18
821.219	3468.62
821.967	3438.29
822.715	3387.82
823.464	3233.54
824.212	3178.74
824.96	3135.64
825.708	3065.72
826.456	2993.96
827.204	2925.4
827.952	2881.53
828.7	2796.7
829.447	2702.86
830.195	2681.72
830.942	2672.55
831.69	2571.7
832.437	2477.67
833.185	2417.87
833.932	2403.9
834.679	2332.88
835.426	2254.89
836.173	2211.16
836.92	2121.25
837.667	2075.4
838.414	2031.76
839.16	2016.08
839.907	1987.95
840.654	1932.64
841.4	1885.04
842.147	1854.73
842.893	1805.67
843.639	1790.47
844.385	1795.4
845.131	1759.5
845.877	1751.37
846.623	1699.95
847.369	1649.8
848.115	1640.1
848.861	1654.06
849.607	1636.58
850.352	1617.94
851.098	1623.87
851.843	1651.09
852.588	1618.13
853.334	1526.13
854.079	1500.47
854.824	1519.52
855.569	1503.07
856.314	1504.07
857.059	1496.22
857.804	1477.01
858.549	1440.04
859.293	1437.71
860.038	1414.89
860.783	1390.96
861.527	1364.81
862.271	1351.95
863.016	1365.29
863.76	1348.17
864.504	1347.63
865.248	1309.25
865.992	1278.22
866.736	1297.85
867.48	1279.95
868.224	1250.1
868.968	1233.89
869.711	1219.48
870.455	1181.78
871.198	1185.72
871.942	1182.96
872.685	1182.47
873.428	1133.46
874.171	1098.06
874.915	1092.24
875.658	1065.85
876.401	1048.42
877.143	1025.36
877.886	995.16
878.629	969.7
879.372	948.49
880.114	904.43
880.857	872.03
881.599	859.37
882.342	844.74
883.084	843.53
883.826	820.26
884.568	793.66
885.31	781.28
886.052	785.18
886.794	751.67
887.536	734.64
888.278	724.68
889.019	714.02
889.761	705.51
890.503	685.86
891.244	654.25
891.985	643.06
892.727	635.52
893.468	618.85
894.209	607.11
894.95	616.3
895.691	615.05
896.432	603.63
897.173	587.33
897.914	577.74
898.654	573.51
899.395	585.72
900.136	581.62
900.876	575.44
901.617	589.55
902.357	580.39
903.097	571.29
903.837	559.03
904.577	555.19
905.317	558.4
906.057	557.79
906.797	570.73
907.537	567.8
908.277	566.85
909.016	561.68
909.756	551.7
910.496	540.8
911.235	529.93
911.974	537.39
912.714	545.13
913.453	542.8
914.192	543.51
914.931	534.91
915.67	532.6
916.409	533.49
917.148	532.53
917.886	535.72
918.625	535.06
919.364	535.35
920.102	539.78
920.841	536.41
921.579	526.49
922.317	520.33
923.055	515.96
923.794	515.57
924.532	513.27
925.27	511.68
926.008	511.03
926.745	512.16
927.483	505.98
928.221	492.11
928.958	485.4
929.696	478.86
930.433	470.33
931.171	459.7
931.908	450.39
932.645	435.95
933.383	421.97
934.12	401.73
934.857	383.29
935.594	366.63
936.33	342.71
937.067	329.58
937.804	318.14
938.541	301.18
939.277	290.3
940.014	275.02
940.75	266.82
941.486	260.47
942.223	249.06
942.959	242.54
943.695	242.57
944.431	236.71
945.167	229.64
945.903	226.6
946.638	221.43
947.374	217.31
948.11	210.9
948.845	207.02
949.581	204.81
950.316	202.66
951.052	199.28
951.787	190.43
952.522	187.45
953.257	181.5
953.992	174.75
954.727	168.58
955.462	164.73
956.197	160.18
956.932	153.8
957.666	149.15
958.401	143.09
959.135	137.82
959.87	132.42
960.604	128.59
961.339	124.05
962.073	120.13
962.807	116.34
963.541	113.1
964.275	109.03
965.009	105.83
965.743	104.01
966.476	101.22
967.21	99.98
967.944	98.04
968.677	95.53
969.411	93.24
970.144	90.79
970.877	89.62
971.611	87.51
972.344	86.45
973.077	85.09
973.81	84
974.543	82.48
975.276	81.64
976.008	80.81
976.741	80.2
977.474	79.82
978.206	78.32
978.939	78.01
979.671	76.63
980.403	76.56
981.136	75.23
981.868	75.1
982.6	74.54
983.332	74.36
984.064	73.14
984.796	73.42
985.527	73.43
986.259	72.73
986.991	4.25
987.722	-0.56
988.454	-1.14
989.185	-1.03
989.917	48.83
990.648	48.54
991.379	48.55
992.11	49.55
992.841	49.67
993.572	49.84
994.303	72.5
995.034	72.09
995.764	71.42
996.495	71.34
997.226	71.58
997.956	70.81
998.687	-0.16
999.417	-0.58
1000.147	-0.3
1000.877	-0.48
