Data from FLMS155811_13-51-27-377.txt Node
Date: Tue Dec 31 13:51:27 MST 2019
User: ECEn Student
Spectrometer: FLMS15581
Trigger mode: 0
Integration Time (sec): 1.000000E-1
Scans to average: 1
Electric dark correction enabled: true
Nonlinearity correction enabled: false
Boxcar width: 0
XAxis mode: Wavelengths
Number of Pixels in Spectrum: 2048
>>>>>Begin Spectral Data<<<<<
298.026	-20.23
298.106	-20.23
298.185	-20.23
298.265	-59.27
298.344	-1.87
298.424	-146.51
298.503	-79.93
298.583	-29.42
298.662	-13.35
298.741	-17.94
298.821	-38.6
298.9	-38.6
298.98	-31.71
299.059	46.35
299.138	-24.83
299.217	50.94
299.297	60.13
299.376	60.13
299.455	57.83
299.535	39.46
299.614	106.05
299.693	138.19
299.772	124.42
299.852	163.45
299.931	213.96
300.01	147.38
300.089	218.55
300.168	266.77
300.247	252.99
300.327	287.43
300.406	273.66
300.485	266.77
300.564	296.62
300.643	285.14
300.722	374.68
300.801	354.02
300.88	310.39
300.959	360.9
301.038	383.86
301.117	335.65
301.196	409.12
301.275	363.2
301.354	425.19
301.433	478
301.512	445.86
301.591	395.34
301.67	422.9
301.749	411.42
301.828	443.56
301.907	413.71
301.985	411.42
302.064	420.6
302.143	409.12
302.222	383.86
302.301	461.93
302.38	381.57
302.458	399.94
302.537	372.38
302.616	363.2
302.695	374.68
302.773	450.45
302.852	331.06
302.931	344.83
303.01	340.24
303.088	381.57
303.167	319.58
303.246	351.72
303.324	413.71
303.403	360.9
303.481	376.98
303.56	340.24
303.639	324.17
303.717	379.27
303.796	365.5
303.874	328.76
303.953	351.72
304.032	365.5
304.11	406.82
304.189	349.42
304.267	298.91
304.346	342.54
304.424	367.79
304.502	365.5
304.581	337.94
304.659	349.42
304.738	406.82
304.816	429.78
304.895	395.34
304.973	367.79
305.051	365.5
305.13	393.05
305.208	432.08
305.286	370.09
305.365	324.17
305.443	321.87
305.521	363.2
305.6	356.31
305.678	342.54
305.756	379.27
305.834	337.94
305.913	358.61
305.991	349.42
306.069	434.38
306.147	397.64
306.225	367.79
306.304	365.5
306.382	370.09
306.46	383.86
306.538	416.01
306.616	370.09
306.694	312.69
306.772	397.64
306.85	436.67
306.929	379.27
307.007	374.68
307.085	356.31
307.163	342.54
307.241	372.38
307.319	310.39
307.397	340.24
307.475	372.38
307.553	370.09
307.631	303.5
307.709	340.24
307.786	356.31
307.864	321.87
307.942	333.35
308.02	411.42
308.098	370.09
308.176	335.65
308.254	374.68
308.332	370.09
308.409	427.49
308.487	351.72
308.565	335.65
308.643	386.16
308.721	328.76
308.798	376.98
308.876	397.64
308.954	395.34
309.032	370.09
309.109	331.06
309.187	324.17
309.265	356.31
309.342	351.72
309.42	310.39
309.498	402.23
309.575	397.64
309.653	404.53
309.731	425.19
309.808	404.53
309.886	381.57
309.963	397.64
310.041	425.19
310.119	379.27
310.196	347.13
310.274	372.38
310.351	319.58
310.429	374.68
310.506	365.5
310.584	386.16
310.661	354.02
310.738	358.61
310.816	413.71
310.893	413.71
310.971	393.05
311.048	266.77
311.126	374.68
311.203	351.72
311.28	379.27
311.358	409.12
311.435	402.23
311.512	413.71
311.59	393.05
311.667	443.56
311.744	413.71
311.821	390.75
311.899	337.94
311.976	455.04
312.053	374.68
312.13	443.56
312.208	395.34
312.285	390.75
312.362	376.98
312.439	344.83
312.516	397.64
312.593	337.94
312.671	372.38
312.748	397.64
312.825	409.12
312.902	420.6
312.979	432.08
313.056	386.16
313.133	365.5
313.21	432.08
313.287	321.87
313.364	347.13
313.441	416.01
313.518	422.9
313.595	411.42
313.672	466.52
313.749	404.53
313.826	402.23
313.903	438.97
313.98	404.53
314.057	404.53
314.134	328.76
314.211	390.75
314.287	409.12
314.364	388.46
314.441	406.82
314.518	432.08
314.595	340.24
314.672	386.16
314.748	457.34
314.825	360.9
314.902	388.46
314.979	370.09
315.055	416.01
315.132	358.61
315.209	370.09
315.286	370.09
315.362	393.05
315.439	333.35
315.516	443.56
315.592	370.09
315.669	406.82
315.746	427.49
315.822	342.54
315.899	402.23
315.975	411.42
316.052	365.5
316.128	445.86
316.205	475.7
316.282	441.26
316.358	441.26
316.435	390.75
316.511	404.53
316.588	395.34
316.664	411.42
316.741	416.01
316.817	487.18
316.893	480.3
316.97	397.64
317.046	390.75
317.123	379.27
317.199	379.27
317.275	448.15
317.352	360.9
317.428	445.86
317.504	480.3
317.581	393.05
317.657	468.82
317.733	383.86
317.81	395.34
317.886	416.01
317.962	464.22
318.038	356.31
318.115	422.9
318.191	416.01
318.267	388.46
318.343	404.53
318.419	395.34
318.496	406.82
318.572	448.15
318.648	360.9
318.724	411.42
318.8	406.82
318.876	425.19
318.952	395.34
319.028	443.56
319.105	427.49
319.181	521.62
319.257	356.31
319.333	420.6
319.409	337.94
319.485	372.38
319.561	376.98
319.637	395.34
319.713	372.38
319.789	459.63
319.865	436.67
319.94	448.15
320.016	379.27
320.092	386.16
320.168	434.38
320.244	445.86
320.32	367.79
320.396	457.34
320.472	411.42
320.547	388.46
320.623	418.3
320.699	388.46
320.775	418.3
320.851	390.75
320.926	438.97
321.002	395.34
321.078	425.19
321.154	432.08
321.229	409.12
321.305	464.22
321.381	397.64
321.456	333.35
321.532	457.34
321.608	331.06
321.683	432.08
321.759	383.86
321.835	466.52
321.91	436.67
321.986	397.64
322.061	393.05
322.137	404.53
322.212	376.98
322.288	386.16
322.364	448.15
322.439	409.12
322.515	452.74
322.59	457.34
322.666	383.86
322.741	381.57
322.816	482.59
322.892	420.6
322.967	399.94
323.043	367.79
323.118	436.67
323.193	459.63
323.269	413.71
323.344	487.18
323.42	406.82
323.495	409.12
323.57	429.78
323.646	448.15
323.721	379.27
323.796	429.78
323.871	386.16
323.947	363.2
324.022	464.22
324.097	411.42
324.172	404.53
324.248	379.27
324.323	422.9
324.398	445.86
324.473	422.9
324.548	379.27
324.623	471.11
324.699	429.78
324.774	358.61
324.849	411.42
324.924	452.74
324.999	402.23
325.074	468.82
325.149	374.68
325.224	436.67
325.299	383.86
325.374	436.67
325.449	379.27
325.524	399.94
325.599	399.94
325.674	395.34
325.749	409.12
325.824	393.05
325.899	455.04
325.974	381.57
326.049	475.7
326.124	413.71
326.199	376.98
326.273	381.57
326.348	455.04
326.423	413.71
326.498	420.6
326.573	448.15
326.648	427.49
326.722	445.86
326.797	420.6
326.872	468.82
326.947	418.3
327.021	395.34
327.096	381.57
327.171	413.71
327.245	397.64
327.32	441.26
327.395	406.82
327.47	468.82
327.544	429.78
327.619	461.93
327.693	416.01
327.768	402.23
327.843	420.6
327.917	432.08
327.992	365.5
328.066	370.09
328.141	441.26
328.215	441.26
328.29	484.89
328.364	340.24
328.439	443.56
328.513	466.52
328.588	397.64
328.662	335.65
328.737	383.86
328.811	438.97
328.886	487.18
328.96	374.68
329.035	441.26
329.109	395.34
329.183	436.67
329.258	461.93
329.332	413.71
329.406	360.9
329.481	393.05
329.555	386.16
329.629	333.35
329.704	393.05
329.778	434.38
329.852	427.49
329.926	420.6
330.001	434.38
330.075	358.61
330.149	416.01
330.223	432.08
330.297	436.67
330.372	425.19
330.446	393.05
330.52	429.78
330.594	397.64
330.668	399.94
330.742	425.19
330.816	395.34
330.89	496.37
330.964	425.19
331.038	436.67
331.113	411.42
331.187	397.64
331.261	425.19
331.335	406.82
331.409	450.45
331.483	427.49
331.557	425.19
331.63	471.11
331.704	383.86
331.778	347.13
331.852	386.16
331.926	356.31
332	480.3
332.074	399.94
332.148	450.45
332.222	379.27
332.295	468.82
332.369	429.78
332.443	422.9
332.517	448.15
332.591	370.09
332.665	438.97
332.738	390.75
332.812	379.27
332.886	473.41
332.959	475.7
333.033	422.9
333.107	399.94
333.181	489.48
333.254	422.9
333.328	441.26
333.402	466.52
333.475	413.71
333.549	452.74
333.622	411.42
333.696	494.07
333.77	409.12
333.843	388.46
333.917	429.78
333.99	409.12
334.064	386.16
334.137	427.49
334.211	429.78
334.284	381.57
334.358	422.9
334.431	425.19
334.505	432.08
334.578	404.53
334.652	413.71
334.725	434.38
334.799	438.97
334.872	416.01
334.945	475.7
335.019	457.34
335.092	434.38
335.165	441.26
335.239	379.27
335.312	445.86
335.385	445.86
335.459	383.86
335.532	434.38
335.605	461.93
335.678	404.53
335.752	404.53
335.825	367.79
335.898	374.68
335.971	484.89
336.045	484.89
336.118	383.86
336.191	360.9
336.264	404.53
336.337	478
336.41	436.67
336.483	413.71
336.557	466.52
336.63	461.93
336.703	452.74
336.776	455.04
336.849	475.7
336.922	399.94
336.995	448.15
337.068	438.97
337.141	445.86
337.214	445.86
337.287	436.67
337.36	376.98
337.433	487.18
337.506	399.94
337.579	445.86
337.652	464.22
337.725	461.93
337.797	457.34
337.87	427.49
337.943	399.94
338.016	409.12
338.089	452.74
338.162	445.86
338.235	354.02
338.307	413.71
338.38	459.63
338.453	420.6
338.526	464.22
338.598	459.63
338.671	443.56
338.744	434.38
338.817	514.74
338.889	487.18
338.962	365.5
339.035	448.15
339.107	471.11
339.18	448.15
339.253	429.78
339.325	491.78
339.398	432.08
339.47	452.74
339.543	500.96
339.616	432.08
339.688	436.67
339.761	416.01
339.833	471.11
339.906	551.47
339.978	512.44
340.051	514.74
340.123	402.23
340.196	471.11
340.268	448.15
340.341	436.67
340.413	443.56
340.485	422.9
340.558	457.34
340.63	436.67
340.703	487.18
340.775	461.93
340.847	397.64
340.92	436.67
340.992	409.12
341.064	457.34
341.137	489.48
341.209	489.48
341.281	399.94
341.354	418.3
341.426	367.79
341.498	420.6
341.57	393.05
341.643	441.26
341.715	473.41
341.787	448.15
341.859	482.59
341.931	450.45
342.003	443.56
342.076	427.49
342.148	441.26
342.22	427.49
342.292	425.19
342.364	512.44
342.436	436.67
342.508	484.89
342.58	464.22
342.652	475.7
342.724	436.67
342.796	464.22
342.868	441.26
342.94	436.67
343.012	468.82
343.084	478
343.156	514.74
343.228	461.93
343.3	459.63
343.372	471.11
343.444	457.34
343.516	457.34
343.588	411.42
343.66	471.11
343.731	489.48
343.803	445.86
343.875	455.04
343.947	546.88
344.019	480.3
344.09	411.42
344.162	441.26
344.234	422.9
344.306	459.63
344.377	489.48
344.449	399.94
344.521	425.19
344.593	494.07
344.664	480.3
344.736	448.15
344.808	413.71
344.879	452.74
344.951	432.08
345.023	484.89
345.094	473.41
345.166	466.52
345.237	466.52
345.309	466.52
345.38	432.08
345.452	436.67
345.524	427.49
345.595	473.41
345.667	395.34
345.738	503.26
345.81	487.18
345.881	546.88
345.953	450.45
346.024	466.52
346.095	459.63
346.167	494.07
346.238	427.49
346.31	530.81
346.381	491.78
346.452	517.03
346.524	482.59
346.595	464.22
346.666	436.67
346.738	491.78
346.809	471.11
346.88	569.84
346.952	528.51
347.023	459.63
347.094	468.82
347.165	475.7
347.237	438.97
347.308	496.37
347.379	457.34
347.45	429.78
347.521	491.78
347.593	445.86
347.664	466.52
347.735	519.33
347.806	468.82
347.877	436.67
347.948	422.9
348.019	427.49
348.09	487.18
348.161	544.58
348.233	500.96
348.304	452.74
348.375	445.86
348.446	466.52
348.517	443.56
348.588	505.55
348.659	480.3
348.73	487.18
348.801	491.78
348.871	517.03
348.942	526.22
349.013	471.11
349.084	512.44
349.155	487.18
349.226	425.19
349.297	498.66
349.368	549.18
349.439	487.18
349.509	512.44
349.58	567.54
349.651	457.34
349.722	551.47
349.793	507.85
349.863	487.18
349.934	455.04
350.005	551.47
350.076	498.66
350.146	558.36
350.217	576.73
350.288	468.82
350.358	558.36
350.429	489.48
350.5	459.63
350.57	528.51
350.641	549.18
350.711	505.55
350.782	526.22
350.853	530.81
350.923	565.25
350.994	542.29
351.064	549.18
351.135	553.77
351.205	537.7
351.276	556.06
351.346	549.18
351.417	528.51
351.487	530.81
351.558	634.13
351.628	551.47
351.699	606.58
351.769	592.8
351.84	588.21
351.91	526.22
351.98	604.28
352.051	654.79
352.121	597.39
352.191	558.36
352.262	562.95
352.332	592.8
352.402	654.79
352.473	650.2
352.543	597.39
352.613	673.16
352.683	647.91
352.754	705.31
352.824	725.97
352.894	696.12
352.964	709.9
353.035	698.42
353.105	730.56
353.175	769.59
353.245	748.93
353.315	806.33
353.385	737.45
353.455	817.81
353.526	826.99
353.596	882.1
353.666	854.55
353.736	902.76
353.806	921.13
353.876	999.19
353.946	1045.11
354.016	1072.67
354.086	1035.93
354.156	1114
354.226	1120.88
354.296	1143.84
354.366	1175.99
354.436	1240.28
354.506	1247.16
354.576	1306.86
354.645	1332.12
354.715	1357.37
354.785	1412.48
354.855	1497.43
354.925	1531.87
354.995	1568.61
355.065	1593.86
355.134	1626.01
355.204	1710.96
355.274	1837.24
355.344	1837.24
355.414	1887.75
355.483	1972.7
355.553	2009.44
355.623	2170.16
355.693	2239.04
355.762	2310.22
355.832	2323.99
355.902	2314.81
355.971	2473.23
356.041	2507.67
356.111	2645.43
356.18	2748.75
356.25	2739.57
356.319	2826.82
356.389	3033.46
356.459	3143.67
356.528	3290.61
356.598	3322.76
356.667	3375.56
356.737	3524.81
356.806	3570.73
356.876	3602.87
356.945	3871.5
357.015	4000.08
357.084	4091.92
357.154	4091.92
357.223	4328.41
357.292	4555.71
357.362	4684.29
357.431	4716.43
357.501	4863.38
357.57	5118.24
357.639	5053.95
357.709	5292.73
357.778	5520.04
357.847	5579.73
357.917	5889.69
357.986	5834.59
358.055	6188.18
358.124	6206.54
358.194	6681.82
358.263	6794.32
358.332	7010.15
358.401	7085.92
358.471	7310.92
358.54	7503.79
358.609	7655.33
358.678	8002.02
358.747	8151.26
358.816	8355.61
358.886	8842.36
358.955	8913.54
359.024	9209.72
359.093	9423.25
359.162	9740.1
359.231	9932.97
359.3	9900.82
359.369	10575.85
359.438	10803.16
359.507	10993.72
359.576	11397.82
359.645	11716.97
359.714	11935.09
359.783	12263.42
359.852	12543.53
359.921	12943.04
359.99	13092.28
360.059	13519.33
360.128	13990.02
360.197	14061.19
360.266	14637.49
360.334	15016.33
360.403	15390.58
360.472	15900.3
360.541	15973.77
360.61	16472
360.679	16772.78
360.747	17238.87
360.816	17654.45
360.885	18003.44
360.954	18428.2
361.022	18692.24
361.091	19201.96
361.16	19505.03
361.228	19817.29
361.297	20361.44
361.366	21070.91
361.434	21440.57
361.503	21908.95
361.572	22303.87
361.64	22430.15
361.709	23472.54
361.778	23911.07
361.846	23989.14
361.915	24609.06
361.983	25290.98
362.052	25596.34
362.12	25917.79
362.189	26673.17
362.257	27286.21
362.326	27456.11
362.394	28427.32
362.463	28734.99
362.531	28849.79
362.6	29561.55
362.668	30142.44
362.737	30939.16
362.805	31515.46
362.873	31673.88
362.942	32172.12
363.01	33106.59
363.079	33609.42
363.147	34537.01
363.215	34348.73
363.284	35232.7
363.352	35882.47
363.42	36360.04
363.488	36892.71
363.557	37547.07
363.625	37955.76
363.693	38763.96
363.761	39374.7
363.83	40600.77
363.898	40669.65
363.966	41342.38
364.034	41617.9
364.102	42529.42
364.171	42958.77
364.239	43824.36
364.307	44432.81
364.375	44703.74
364.443	45025.18
364.511	45994.09
364.579	46581.87
364.647	47066.33
364.715	47541.6
364.783	48423.27
364.851	48398.02
364.919	49596.53
364.987	49787.1
365.055	50090.17
365.123	50691.73
365.191	51049.91
365.259	51589.47
365.327	51910.91
365.395	52585.94
365.463	52730.59
365.531	53313.77
365.599	53495.16
365.667	54078.34
365.735	54030.13
365.802	54512.29
365.87	54509.99
365.938	54673.01
366.006	55410.03
366.074	55359.52
366.142	55701.62
366.209	55873.82
366.277	55956.48
366.345	56466.19
366.413	56523.59
366.48	56819.78
366.548	56973.61
366.616	57221.58
366.683	57389.19
366.751	57474.14
366.819	57689.97
366.886	57832.32
366.954	58066.51
367.022	58107.84
367.089	58229.53
367.157	58268.56
367.224	58312.18
367.292	58502.75
367.36	58679.55
367.427	58899.96
367.495	58847.15
367.562	59051.5
367.63	59092.83
367.697	59088.24
367.765	59478.56
367.832	59439.53
367.9	59531.37
367.967	59460.19
368.034	59462.49
368.102	59579.58
368.169	59616.32
368.237	59896.43
368.304	59901.02
368.371	59857.4
368.439	60098.48
368.506	60089.3
368.573	60018.12
368.641	60194.91
368.708	60054.86
368.775	59972.2
368.843	60188.02
368.91	60093.89
368.977	59905.62
369.044	60511.76
369.112	60176.54
369.179	60403.85
369.246	60337.26
369.313	60413.03
369.38	60380.89
369.448	60158.18
369.515	60144.4
369.582	60339.56
369.649	60194.91
369.716	60321.19
369.783	60295.94
369.85	60463.55
369.917	60314.3
369.984	60383.19
370.052	60309.71
370.119	60300.53
370.186	60298.23
370.253	60148.99
370.32	60077.82
370.387	60293.64
370.454	60390.07
370.521	60146.7
370.587	60158.18
370.654	60233.94
370.721	60139.81
370.788	60064.04
370.855	60107.66
370.922	59969.9
370.989	59839.03
371.056	60025.01
371.123	59781.63
371.189	59664.53
371.256	59788.52
371.323	59756.37
371.39	59632.39
371.457	59694.38
371.523	59586.47
371.59	59473.97
371.657	59329.32
371.724	59354.57
371.79	59366.05
371.857	59262.73
371.924	59398.2
371.991	59253.55
372.057	59136.45
372.124	59056.09
372.191	58952.77
372.257	58971.14
372.324	58925.22
372.39	58831.08
372.457	58785.16
372.524	58532.6
372.59	58775.98
372.657	58422.39
372.723	58038.96
372.79	58213.46
372.856	57820.84
372.923	58048.14
372.989	57912.68
373.056	57919.57
373.122	57653.23
373.189	57552.21
373.255	57478.73
373.322	57396.08
373.388	57226.17
373.454	57331.79
373.521	57148.11
373.587	57019.53
373.654	57065.45
373.72	56897.84
373.786	56684.31
373.853	56606.25
373.919	56385.83
373.985	55885.3
374.052	55951.89
374.118	56057.5
374.184	55917.45
374.25	55692.44
374.317	55442.17
374.383	55474.32
374.449	55435.28
374.515	55123.03
374.581	54803.88
374.648	54507.7
374.714	54546.73
374.78	54234.47
374.846	54174.78
374.912	54206.92
374.978	54004.87
375.044	53596.18
375.11	53499.75
375.177	53309.18
375.243	53265.56
375.309	53058.91
375.375	52886.71
375.441	52397.66
375.507	52556.09
375.573	52312.71
375.639	51851.21
375.705	51614.72
375.771	51910.91
375.837	51499.92
375.903	51084.35
375.968	50820.31
376.034	50661.88
376.1	50349.62
376.166	50255.49
376.232	50184.31
376.298	49892.72
376.364	49715.92
376.43	49467.96
376.495	49192.43
376.561	48329.14
376.627	48827.37
376.693	48301.58
376.759	48218.93
376.824	47704.62
376.89	47984.73
376.956	47238.53
377.022	47470.43
377.087	47158.17
377.153	46772.44
377.219	46940.05
377.284	46287.98
377.35	45938.99
377.416	45649.69
377.481	46090.53
377.547	45123.91
377.613	44935.63
377.678	44572.86
377.744	44042.49
377.809	44028.71
377.875	43682.01
377.94	43390.42
378.006	43287.1
378.071	43041.43
378.137	42846.26
378.202	42616.66
378.268	42517.93
378.333	42419.21
378.399	41581.16
378.464	41537.54
378.53	41284.98
378.595	40970.42
378.661	40947.46
378.726	40249.48
378.791	40258.66
378.857	39856.86
378.922	39902.78
378.987	39078.51
379.053	39188.72
379.118	39009.63
379.183	38651.45
379.249	38357.57
379.314	38098.12
379.379	37455.23
379.444	37489.67
379.51	37099.35
379.575	36897.3
379.64	36417.44
379.705	36178.65
379.771	36054.67
379.836	35455.41
379.901	34872.22
379.966	35200.55
380.031	34741.35
380.096	34881.41
380.161	34582.93
380.227	33960.71
380.292	34394.65
380.357	33641.56
380.422	33225.98
380.487	33141.03
380.552	32952.76
380.617	32647.39
380.682	32188.19
380.747	32231.81
380.812	31524.64
380.877	31710.62
380.942	31396.06
381.007	31166.46
381.072	31033.3
381.137	30707.26
381.202	30555.73
381.266	30183.77
381.331	29719.98
381.396	29556.96
381.461	29628.14
381.526	29189.6
381.591	28645.45
381.656	28831.42
381.72	28987.55
381.785	28367.63
381.85	28565.09
381.915	28229.87
381.979	28160.99
382.044	27931.39
382.109	27396.42
382.174	27237.99
382.238	27148.45
382.303	27426.26
382.368	27343.61
382.432	26847.67
382.497	26583.63
382.562	26847.67
382.626	26723.69
382.691	26301.22
382.756	26264.48
382.82	25945.34
382.885	25704.26
382.949	25789.21
383.014	25403.48
383.078	24898.36
383.143	25387.41
383.208	24829.48
383.272	24790.45
383.337	24565.44
383.401	24400.12
383.465	23917.96
383.53	24260.07
383.594	24087.87
383.659	23878.93
383.723	23842.19
383.788	23380.7
383.852	23226.86
383.916	23470.24
383.981	23339.37
384.045	23050.07
384.109	23079.92
384.174	22903.13
384.238	22827.36
384.302	22365.86
384.367	22423.26
384.431	22301.57
384.495	22074.27
384.56	22005.39
384.624	21911.25
384.688	21638.02
384.752	21727.57
384.816	21390.06
384.881	21419.9
384.945	20949.22
385.009	21006.62
385.073	20636.96
385.137	20634.67
385.201	20648.44
385.265	20290.27
385.33	20579.56
385.394	20138.73
385.458	19741.52
385.522	19890.76
385.586	19642.79
385.65	19553.25
385.714	19222.62
385.778	19277.73
385.842	19080.27
385.906	19089.45
385.97	18485.6
386.034	18632.55
386.098	18577.44
386.162	18244.52
386.226	18143.5
386.29	17991.96
386.354	17656.74
386.417	17973.59
386.481	17413.37
386.545	17427.14
386.609	17186.06
386.673	17110.29
386.737	16781.96
386.8	16593.69
386.864	16940.39
386.928	16249.29
386.992	16194.19
387.056	16024.28
387.119	16003.62
387.183	15966.88
387.247	15776.31
387.31	15519.16
387.374	15397.47
387.438	15236.75
387.502	14915.31
387.565	14915.31
387.629	14750
387.692	14699.48
387.756	14449.22
387.82	14215.03
387.883	14210.43
387.947	13870.62
388.01	13647.91
388.074	13540
388.138	13312.69
388.201	13333.36
388.265	12984.36
388.328	13044.06
388.392	13002.73
388.455	12867.27
388.519	12651.44
388.582	12458.58
388.645	12272.6
388.709	12270.31
388.772	11905.24
388.836	11834.06
388.899	11815.7
388.962	11652.68
389.026	11400.12
389.089	11202.66
389.153	11305.98
389.216	11163.63
389.279	11099.34
389.343	10619.47
389.406	10878.92
389.469	10610.29
389.532	10438.09
389.596	10392.17
389.659	10183.23
389.722	9786.02
389.785	9930.67
389.848	9942.15
389.912	9583.97
389.975	9515.09
390.038	9487.54
390.101	9521.98
390.164	9308.45
390.227	9253.35
390.291	9007.68
390.354	9145.44
390.417	8931.91
390.48	8853.84
390.543	8628.83
390.606	8619.65
390.669	8385.46
390.732	8468.11
390.795	8424.49
390.858	8261.47
390.921	8233.92
390.984	8121.42
391.047	8208.66
391.11	7910.18
391.173	7636.96
391.236	7659.92
391.299	7790.79
391.362	7760.94
391.424	7611.7
391.487	7641.55
391.55	7501.49
391.613	7235.16
391.676	7212.2
391.739	7237.45
391.802	7111.17
391.864	7003.26
391.927	7090.51
391.99	6955.04
392.053	6863.2
392.115	6978
392.178	6902.24
392.241	6674.93
392.304	6647.38
392.366	6486.66
392.429	6475.18
392.492	6415.48
392.554	6259.35
392.617	6268.54
392.68	6247.87
392.742	6215.73
392.805	6038.94
392.867	5924.14
392.93	6084.86
392.992	5834.59
393.055	5850.66
393.118	5800.15
393.18	5637.13
393.243	5772.6
393.305	5632.54
393.368	5660.09
393.43	5588.92
393.493	5689.94
393.555	5396.05
393.618	5379.98
393.68	5292.73
393.742	5423.61
393.805	5148.08
393.867	5152.68
393.93	5230.74
393.992	5058.54
394.054	5212.37
394.117	5060.84
394.179	4925.37
394.241	4932.26
394.304	4840.42
394.366	4817.46
394.428	4980.48
394.49	4851.9
394.553	4746.28
394.615	4663.63
394.677	4743.99
394.739	4783.02
394.802	4603.93
394.864	4642.96
394.926	4551.12
394.988	4546.53
395.05	4486.83
395.112	4346.78
395.174	4436.32
395.237	4353.66
395.299	4420.25
395.361	4133.25
395.423	4213.61
395.485	4140.14
395.547	4176.87
395.609	4094.22
395.671	4098.81
395.733	3963.34
395.795	3986.3
395.857	3967.93
395.919	3830.17
395.981	3947.27
396.043	3825.58
396.105	3942.68
396.167	3818.69
396.229	3814.1
396.291	3719.97
396.352	3674.05
396.414	3639.61
396.476	3641.9
396.538	3703.89
396.6	3561.54
396.662	3584.5
396.724	3575.32
396.785	3403.12
396.847	3515.62
396.909	3449.04
396.971	3373.27
397.032	3488.07
397.094	3242.4
397.156	3265.36
397.218	3224.03
397.279	3221.73
397.341	3265.36
397.403	3203.36
397.464	3132.19
397.526	3171.22
397.588	3072.49
397.649	3040.35
397.711	3063.31
397.772	3033.46
397.834	2992.13
397.896	3141.37
397.957	2982.95
398.019	2879.63
398.08	3024.28
398.142	2856.67
398.203	2771.71
398.265	2879.63
398.326	2852.07
398.388	2776.31
398.449	2698.24
398.511	2852.07
398.572	2714.31
398.633	2723.5
398.695	2702.83
398.756	2549
398.818	2613.29
398.879	2567.37
398.94	2617.88
399.002	2509.97
399.063	2521.45
399.124	2512.26
399.186	2438.79
399.247	2514.56
399.308	2404.35
399.369	2425.02
399.431	2278.07
399.492	2310.22
399.553	2323.99
399.614	2218.38
399.676	2321.7
399.737	2248.22
399.798	2278.07
399.859	2298.74
399.92	2200.01
399.981	2259.7
400.042	1979.59
400.104	2069.14
400.165	2133.42
400.226	2089.8
400.287	2046.17
400.348	2126.54
400.409	2078.32
400.47	2027.81
400.531	1933.67
400.592	2057.66
400.653	1965.81
400.714	2000.25
400.775	1933.67
400.836	1910.71
400.897	1977.29
400.958	1844.13
401.019	1975
401.08	1887.75
401.141	1816.57
401.201	1789.02
401.262	1791.32
401.323	1857.9
401.384	1805.09
401.445	1841.83
401.506	1800.5
401.567	1775.25
401.627	1761.47
401.688	1722.44
401.749	1759.17
401.81	1674.22
401.87	1674.22
401.931	1653.56
401.992	1639.78
402.053	1635.19
402.113	1623.71
402.174	1628.3
402.235	1559.42
402.295	1635.19
402.356	1619.12
402.417	1566.31
402.477	1600.75
402.538	1529.57
402.598	1522.68
402.659	1531.87
402.719	1552.53
402.78	1485.95
402.841	1469.88
402.901	1437.73
402.962	1414.77
403.022	1449.21
403.083	1355.08
403.143	1467.58
403.204	1401
403.264	1449.21
403.324	1437.73
403.385	1350.48
403.445	1272.42
403.506	1364.26
403.566	1355.08
403.627	1355.08
403.687	1316.04
403.747	1249.46
403.808	1258.64
403.868	1299.97
403.928	1249.46
403.989	1348.19
404.049	1201.24
404.109	1306.86
404.169	1263.24
404.23	1192.06
404.29	1254.05
404.35	1217.32
404.41	1224.2
404.47	1189.76
404.531	1212.72
404.591	1203.54
404.651	1185.17
404.711	1247.16
404.771	1166.8
404.831	1233.39
404.892	1210.43
404.952	1196.65
405.012	1162.21
405.072	1192.06
405.132	1127.77
405.192	1143.84
405.252	1141.55
405.312	1134.66
405.372	1185.17
405.432	1056.59
405.492	1111.7
405.552	1104.81
405.612	1153.03
405.672	1123.18
405.732	1127.77
405.792	1040.52
405.852	1017.56
405.912	1056.59
405.971	1118.59
406.031	1015.27
406.091	1077.26
406.151	1010.67
406.211	1040.52
406.271	1084.15
406.33	1079.55
406.39	1040.52
406.45	999.19
406.51	994.6
406.57	1081.85
406.629	964.75
406.689	980.83
406.749	1010.67
406.808	934.91
406.868	1010.67
406.928	1054.3
406.988	964.75
407.047	999.19
407.107	895.87
407.166	1054.3
407.226	1088.74
407.286	980.83
407.345	1047.41
407.405	937.2
407.464	1015.27
407.524	950.98
407.584	973.94
407.643	898.17
407.703	957.87
407.762	941.79
407.822	969.35
407.881	944.09
407.941	895.87
408	898.17
408.059	886.69
408.119	840.77
408.178	804.03
408.238	895.87
408.297	932.61
408.356	877.51
408.416	872.91
408.475	794.85
408.535	826.99
408.594	781.07
408.653	960.16
408.712	852.25
408.772	817.81
408.831	852.25
408.89	902.76
408.95	826.99
409.009	831.59
409.068	843.07
409.127	845.36
409.186	806.33
409.246	820.11
409.305	836.18
409.364	817.81
409.423	783.37
409.482	872.91
409.541	829.29
409.6	765
409.66	774.19
409.719	806.33
409.778	755.82
409.837	769.59
409.896	792.55
409.955	783.37
410.014	794.85
410.073	755.82
410.132	799.44
410.191	787.96
410.25	801.74
410.309	762.71
410.368	742.04
410.427	783.37
410.486	689.23
410.545	751.23
410.603	728.27
410.662	794.85
410.721	783.37
410.78	700.71
410.839	698.42
410.898	746.63
410.957	762.71
411.015	787.96
411.074	737.45
411.133	742.04
411.192	696.12
411.25	774.19
411.309	643.31
411.368	682.35
411.427	698.42
411.485	680.05
411.544	709.9
411.603	755.82
411.661	663.98
411.72	746.63
411.779	700.71
411.837	709.9
411.896	774.19
411.955	760.41
412.013	686.94
412.072	728.27
412.13	686.94
412.189	709.9
412.247	597.39
412.306	693.83
412.364	645.61
412.423	703.01
412.481	709.9
412.54	627.24
412.598	703.01
412.657	705.31
412.715	689.23
412.774	608.87
412.832	663.98
412.891	634.13
412.949	615.76
413.007	663.98
413.066	627.24
413.124	636.43
413.182	700.71
413.241	641.02
413.299	631.83
413.357	636.43
413.416	526.22
413.474	576.73
413.532	698.42
413.59	661.68
413.649	608.87
413.707	659.39
413.765	657.09
413.823	590.5
413.881	599.69
413.94	613.47
413.998	588.21
414.056	601.98
414.114	567.54
414.172	645.61
414.23	588.21
414.288	572.14
414.347	579.02
414.405	569.84
414.463	627.24
414.521	576.73
414.579	585.91
414.637	599.69
414.695	521.62
414.753	618.06
414.811	579.02
414.869	588.21
414.927	585.91
414.985	611.17
415.043	622.65
415.101	636.43
415.158	530.81
415.216	606.58
415.274	551.47
415.332	537.7
415.39	608.87
415.448	533.1
415.506	613.47
415.563	604.28
415.621	523.92
415.679	526.22
415.737	553.77
415.795	510.14
415.852	546.88
415.91	590.5
415.968	498.66
416.026	585.91
416.083	560.66
416.141	601.98
416.199	558.36
416.256	576.73
416.314	528.51
416.372	558.36
416.429	542.29
416.487	574.43
416.544	560.66
416.602	606.58
416.66	606.58
416.717	562.95
416.775	542.29
416.832	604.28
416.89	544.58
416.947	549.18
417.005	576.73
417.062	549.18
417.12	510.14
417.177	507.85
417.235	537.7
417.292	514.74
417.35	560.66
417.407	510.14
417.464	489.48
417.522	519.33
417.579	535.4
417.637	471.11
417.694	519.33
417.751	544.58
417.809	537.7
417.866	507.85
417.923	539.99
417.981	468.82
418.038	461.93
418.095	537.7
418.152	480.3
418.21	574.43
418.267	489.48
418.324	494.07
418.381	523.92
418.438	494.07
418.496	459.63
418.553	503.26
418.61	478
418.667	517.03
418.724	468.82
418.781	484.89
418.838	537.7
418.895	480.3
418.952	553.77
419.01	507.85
419.067	528.51
419.124	473.41
419.181	466.52
419.238	438.97
419.295	425.19
419.352	496.37
419.409	560.66
419.466	546.88
419.523	546.88
419.579	521.62
419.636	539.99
419.693	438.97
419.75	519.33
419.807	464.22
419.864	500.96
419.921	551.47
419.978	565.25
420.034	556.06
420.091	436.67
420.148	487.18
420.205	420.6
420.262	519.33
420.318	500.96
420.375	482.59
420.432	457.34
420.489	533.1
420.545	473.41
420.602	427.49
420.659	427.49
420.715	464.22
420.772	457.34
420.829	464.22
420.885	523.92
420.942	533.1
420.999	496.37
421.055	478
421.112	505.55
421.168	494.07
421.225	461.93
421.282	397.64
421.338	484.89
421.395	448.15
421.451	487.18
421.508	443.56
421.564	457.34
421.621	496.37
421.677	450.45
421.734	448.15
421.79	406.82
421.846	413.71
421.903	466.52
421.959	461.93
422.016	505.55
422.072	397.64
422.128	429.78
422.185	491.78
422.241	475.7
422.297	434.38
422.354	489.48
422.41	445.86
422.466	413.71
422.523	441.26
422.579	406.82
422.635	429.78
422.691	487.18
422.748	494.07
422.804	461.93
422.86	498.66
422.916	606.58
422.972	452.74
423.029	478
423.085	443.56
423.141	443.56
423.197	461.93
423.253	461.93
423.309	383.86
423.365	494.07
423.421	438.97
423.477	466.52
423.533	347.13
423.589	464.22
423.645	432.08
423.701	450.45
423.757	422.9
423.813	418.3
423.869	427.49
423.925	425.19
423.981	484.89
424.037	411.42
424.093	441.26
424.149	390.75
424.205	416.01
424.261	459.63
424.317	441.26
424.373	416.01
424.428	395.34
424.484	471.11
424.54	438.97
424.596	457.34
424.652	429.78
424.708	480.3
424.763	443.56
424.819	432.08
424.875	390.75
424.931	455.04
424.986	429.78
425.042	411.42
425.098	484.89
425.153	422.9
425.209	432.08
425.265	395.34
425.32	496.37
425.376	404.53
425.432	402.23
425.487	434.38
425.543	448.15
425.598	461.93
425.654	397.64
425.709	367.79
425.765	411.42
425.82	427.49
425.876	466.52
425.932	420.6
425.987	402.23
426.042	372.38
426.098	473.41
426.153	436.67
426.209	363.2
426.264	432.08
426.32	468.82
426.375	455.04
426.43	464.22
426.486	418.3
426.541	443.56
426.597	370.09
426.652	409.12
426.707	395.34
426.763	436.67
426.818	503.26
426.873	434.38
426.928	473.41
426.984	383.86
427.039	436.67
427.094	445.86
427.149	406.82
427.205	413.71
427.26	386.16
427.315	441.26
427.37	376.98
427.425	379.27
427.48	402.23
427.536	328.76
427.591	452.74
427.646	484.89
427.701	466.52
427.756	372.38
427.811	399.94
427.866	397.64
427.921	413.71
427.976	418.3
428.031	413.71
428.086	487.18
428.141	443.56
428.196	379.27
428.251	445.86
428.306	443.56
428.361	457.34
428.416	420.6
428.471	438.97
428.526	376.98
428.581	443.56
428.636	367.79
428.691	473.41
428.745	390.75
428.8	425.19
428.855	471.11
428.91	416.01
428.965	399.94
429.02	395.34
429.074	347.13
429.129	429.78
429.184	379.27
429.239	441.26
429.293	443.56
429.348	464.22
429.403	422.9
429.457	457.34
429.512	360.9
429.567	356.31
429.621	432.08
429.676	411.42
429.731	473.41
429.785	438.97
429.84	445.86
429.895	484.89
429.949	381.57
430.004	358.61
430.058	409.12
430.113	436.67
430.167	390.75
430.222	395.34
430.276	457.34
430.331	358.61
430.385	404.53
430.44	381.57
430.494	393.05
430.549	354.02
430.603	379.27
430.657	448.15
430.712	381.57
430.766	381.57
430.821	390.75
430.875	420.6
430.929	404.53
430.984	436.67
431.038	404.53
431.092	395.34
431.147	505.55
431.201	411.42
431.255	468.82
431.309	379.27
431.364	466.52
431.418	438.97
431.472	413.71
431.526	420.6
431.581	397.64
431.635	386.16
431.689	390.75
431.743	438.97
431.797	381.57
431.851	425.19
431.906	443.56
431.96	335.65
432.014	432.08
432.068	404.53
432.122	383.86
432.176	461.93
432.23	436.67
432.284	416.01
432.338	374.68
432.392	381.57
432.446	425.19
432.5	422.9
432.554	452.74
432.608	436.67
432.662	441.26
432.716	443.56
432.77	466.52
432.824	425.19
432.878	358.61
432.931	402.23
432.985	365.5
433.039	381.57
433.093	383.86
433.147	397.64
433.201	404.53
433.254	395.34
433.308	413.71
433.362	422.9
433.416	448.15
433.47	393.05
433.523	383.86
433.577	425.19
433.631	360.9
433.684	390.75
433.738	399.94
433.792	399.94
433.846	388.46
433.899	406.82
433.953	386.16
434.006	376.98
434.06	367.79
434.114	406.82
434.167	406.82
434.221	406.82
