# Data from QEPB00791_17-18-57-140.txt Node
# 
# Date: Mon Jan 20 17:18:57 MST 2020
# User: ecestudent
# Spectrometer: QEPB0079
# Trigger mode: 0
# Integration Time (sec): 8.000000E-3
# Scans to average: 1
# Electric dark correction enabled: true
# Nonlinearity correction enabled: false
# Boxcar width: 0
# XAxis mode: Wavelengths
# Number of Pixels in Spectrum: 1044
# >>>>>Begin Spectral Data<<<<<
2.999689999999999941e+02,9.547100482270738212e+03
3.007669999999999959e+02,9.442804082612608909e+03
3.015649999999999977e+02,9.960323045058004936e+03
3.023629999999999995e+02,9.891472671085148249e+03
3.031600000000000250e+02,9.334791854064595100e+03
3.039580000000000268e+02,9.646765024116348286e+03
3.047559999999999718e+02,1.018282434570986152e+04
3.055529999999999973e+02,1.000179367644245031e+04
3.063500000000000227e+02,9.603955465546345295e+03
3.071480000000000246e+02,1.043913642291341421e+04
3.079449999999999932e+02,1.068751503994367340e+04
3.087420000000000186e+02,1.071814131398047357e+04
3.095389999999999873e+02,1.065994108815798245e+04
3.103360000000000127e+02,1.123591507749717493e+04
3.111329999999999814e+02,1.120930166155570441e+04
3.119300000000000068e+02,1.128016138594278527e+04
3.127269999999999754e+02,1.126023216150920780e+04
3.135240000000000009e+02,1.182111840783535263e+04
3.143199999999999932e+02,1.238856984475434365e+04
3.151170000000000186e+02,1.239097192066806019e+04
3.159130000000000109e+02,1.272990027162428305e+04
3.167099999999999795e+02,1.346602256871761347e+04
3.175059999999999718e+02,1.378550288880051266e+04
3.183020000000000209e+02,1.400640647605485901e+04
3.190989999999999895e+02,1.442470566640446123e+04
3.198949999999999818e+02,1.486985785159714942e+04
3.206909999999999741e+02,1.525571940532072767e+04
3.214870000000000232e+02,1.563486226631348836e+04
3.222830000000000155e+02,1.601612375465160767e+04
3.230790000000000077e+02,1.614523729606263805e+04
3.238740000000000236e+02,1.716200824025349721e+04
3.246700000000000159e+02,1.753563172886868415e+04
3.254660000000000082e+02,1.786196212045479115e+04
3.262610000000000241e+02,1.765204923104650879e+04
3.270570000000000164e+02,1.870785653731556522e+04
3.278519999999999754e+02,1.876238855024186341e+04
3.286480000000000246e+02,1.964858351299104470e+04
3.294429999999999836e+02,2.022697968240061891e+04
3.302379999999999995e+02,2.046880829731671110e+04
3.310330000000000155e+02,2.086489456408236219e+04
3.318279999999999745e+02,2.123726159185027427e+04
3.326229999999999905e+02,2.177953342437951142e+04
3.334180000000000064e+02,2.263617424709340048e+04
3.342130000000000223e+02,2.299762079477440057e+04
3.350079999999999814e+02,2.342621438338342705e+04
3.358029999999999973e+02,2.428512320785970223e+04
3.365969999999999800e+02,2.400361900698411046e+04
3.373919999999999959e+02,2.459566237062982327e+04
3.381859999999999786e+02,2.480204119912254100e+04
3.389809999999999945e+02,2.527880137416275102e+04
3.397749999999999773e+02,2.498808090869531225e+04
3.405699999999999932e+02,2.582119069981595021e+04
3.413639999999999759e+02,2.622833800464878004e+04
3.421580000000000155e+02,2.672591152526781661e+04
3.429519999999999982e+02,2.720849622653418555e+04
3.437459999999999809e+02,2.722932080831291387e+04
3.445400000000000205e+02,2.758737106127049265e+04
3.453340000000000032e+02,2.782973739094892153e+04
3.461270000000000095e+02,2.798615767201333801e+04
3.469209999999999923e+02,2.804687861245269596e+04
3.477149999999999750e+02,2.823553482201030056e+04
3.485079999999999814e+02,2.820054023957969184e+04
3.493020000000000209e+02,2.773153666671365863e+04
3.500950000000000273e+02,2.798722935306938962e+04
3.508890000000000100e+02,2.812370389295294808e+04
3.516820000000000164e+02,2.834098387644391551e+04
3.524750000000000227e+02,2.809847162770919749e+04
3.532679999999999723e+02,2.796129724516153874e+04
3.540609999999999786e+02,2.778148024036810602e+04
3.548539999999999850e+02,2.773667488012966714e+04
3.556469999999999914e+02,2.787411514224719576e+04
3.564399999999999977e+02,2.816670853937766879e+04
3.572330000000000041e+02,2.832816925997325961e+04
3.580249999999999773e+02,2.821089765480348069e+04
3.588179999999999836e+02,2.859110157224211071e+04
3.596109999999999900e+02,2.925946454513617937e+04
3.604030000000000200e+02,2.983289677293423301e+04
3.611949999999999932e+02,3.115162400476091352e+04
3.619879999999999995e+02,3.165367567968925505e+04
3.627799999999999727e+02,3.230563778538872430e+04
3.635720000000000027e+02,3.223961101844878795e+04
3.643639999999999759e+02,3.176724874495250333e+04
3.651560000000000059e+02,3.163507950884800812e+04
3.659479999999999791e+02,3.122863712527455937e+04
3.667400000000000091e+02,3.074539094052043220e+04
3.675319999999999823e+02,2.995277305809821337e+04
3.683240000000000123e+02,2.924444988207181450e+04
3.691159999999999854e+02,2.817099080897386739e+04
3.699069999999999823e+02,2.728204043426534190e+04
3.706990000000000123e+02,2.638552663661247061e+04
3.714900000000000091e+02,2.542009607080940987e+04
3.722819999999999823e+02,2.454449602998416594e+04
3.730729999999999791e+02,2.375733604135232235e+04
3.738639999999999759e+02,2.290715736366150304e+04
3.746549999999999727e+02,2.220737371891006842e+04
3.754460000000000264e+02,2.148118289962303970e+04
3.762370000000000232e+02,2.077443006893404163e+04
3.770280000000000200e+02,2.015328760661457272e+04
3.778190000000000168e+02,1.946967062926011567e+04
3.786100000000000136e+02,1.879109180184690558e+04
3.794010000000000105e+02,1.828771505326483748e+04
3.801920000000000073e+02,1.743625715569610111e+04
3.809820000000000277e+02,1.661788412099613197e+04
3.817730000000000246e+02,1.606754048639544999e+04
3.825629999999999882e+02,1.514956354787683813e+04
3.833539999999999850e+02,1.428579652660705324e+04
3.841440000000000055e+02,1.327235701409018839e+04
3.849340000000000259e+02,1.228366327783989436e+04
3.857239999999999895e+02,1.133345245723930384e+04
3.865140000000000100e+02,1.020868708393754241e+04
3.873039999999999736e+02,9.189749784125466249e+03
3.880939999999999941e+02,8.059721679482762738e+03
3.888840000000000146e+02,7.093033675208837849e+03
3.896739999999999782e+02,6.105769905046995518e+03
3.904639999999999986e+02,5.204414726737134515e+03
3.912529999999999859e+02,4.341610448939957678e+03
3.920430000000000064e+02,3.684635114316400177e+03
3.928319999999999936e+02,3.139493447400181594e+03
3.936220000000000141e+02,2.689853948741723798e+03
3.944110000000000014e+02,2.255835549993283621e+03
3.952010000000000218e+02,1.842275524633437954e+03
3.959900000000000091e+02,1.605248046950663365e+03
3.967789999999999964e+02,1.331988803807577597e+03
3.975679999999999836e+02,1.127843036175044745e+03
3.983570000000000277e+02,9.260536191430805957e+02
3.991460000000000150e+02,8.057621499277969406e+02
3.999350000000000023e+02,6.188659789442722285e+02
4.007239999999999895e+02,5.786821710096988909e+02
4.015120000000000005e+02,4.198828210385115653e+02
4.023009999999999877e+02,3.915606661066418042e+02
4.030899999999999750e+02,3.960953194945250289e+02
4.038779999999999859e+02,3.349240707804462431e+02
4.046669999999999732e+02,3.008257531205368878e+02
4.054549999999999841e+02,2.611526737951194832e+02
4.062429999999999950e+02,1.971648823469342346e+02
4.070310000000000059e+02,2.699048688494782482e+02
4.078199999999999932e+02,1.713308102450698129e+02
4.086080000000000041e+02,1.549278080575072352e+02
4.093960000000000150e+02,1.839090400679998538e+02
4.101840000000000259e+02,9.032519295036928497e+01
4.109710000000000036e+02,1.181182518538190891e+02
4.117590000000000146e+02,9.042994153654153422e+01
4.125470000000000255e+02,1.378445736376639275e+02
4.133340000000000032e+02,6.240479552815781972e+01
4.141220000000000141e+02,1.152007393840805065e+02
4.149100000000000250e+02,8.140024245725255980e+01
4.156970000000000027e+02,8.364909685175175014e+01
4.164839999999999804e+02,9.756131903857878740e+01
4.172719999999999914e+02,9.475643706518482645e+01
4.180590000000000259e+02,1.067518282218958525e+01
4.188460000000000036e+02,8.560396080752778403e+01
4.196329999999999814e+02,6.006052973374448811e+01
4.204200000000000159e+02,4.097378123842283060e+01
4.212069999999999936e+02,5.641149350967469900e+01
4.219940000000000282e+02,7.042362641131308010e+01
4.227799999999999727e+02,-3.415454112191291358e+00
4.235670000000000073e+02,2.805226722343166301e+01
4.243539999999999850e+02,2.058777379875546387e+01
4.251399999999999864e+02,5.054771187065541227e+01
4.259270000000000209e+02,3.886363103941122432e+01
4.267130000000000223e+02,6.016339204308852828e+01
4.274990000000000236e+02,3.022772203071975383e+01
4.282860000000000014e+02,1.268746578441063200e+01
4.290720000000000027e+02,4.282720274954540685e+01
4.298580000000000041e+02,2.205548673236130242e+01
4.306440000000000055e+02,8.039542929989445952e+01
4.314300000000000068e+02,3.876553323859576494e+01
4.322160000000000082e+02,1.687730067783982335e+01
4.330020000000000095e+02,4.372247585634087841e+01
4.337869999999999777e+02,1.454741043851001336e+02
4.345729999999999791e+02,2.045874913853919281e+02
4.353589999999999804e+02,2.685778624019768586e+02
4.361440000000000055e+02,2.827863237070019977e+02
4.369300000000000068e+02,2.079659495131704432e+02
4.377149999999999750e+02,1.732634548328288417e+02
4.385000000000000000e+02,1.385625363785599404e+02
4.392860000000000014e+02,1.327957252804748123e+02
4.400710000000000264e+02,1.045619126142525204e+02
4.408559999999999945e+02,7.306188080238662508e+01
4.416410000000000196e+02,6.430260025936473767e+01
4.424259999999999877e+02,3.226294917957580566e+01
4.432110000000000127e+02,5.797892590820771375e+01
4.439959999999999809e+02,3.384185363544415992e+01
4.447799999999999727e+02,2.272989085676429877e+00
4.455649999999999977e+02,3.649035363346363425e+01
4.463500000000000227e+02,2.006364555117788484e+01
4.471340000000000146e+02,3.905538443891457945e+01
4.479189999999999827e+02,2.819739232194206480e+01
4.487029999999999745e+02,-2.388391731512373184e+01
4.494870000000000232e+02,2.196908695754643048e+01
4.502710000000000150e+02,1.845870188219355512e+01
4.510559999999999832e+02,8.434981774576858271e+00
4.518399999999999750e+02,1.196154819491588128e+01
4.526240000000000236e+02,-1.022268451998336758e+01
4.534080000000000155e+02,5.393705353512363132e+00
4.541909999999999741e+02,2.761562445191957949e+01
4.549750000000000227e+02,2.750413004829354335e+01
4.557590000000000146e+02,3.351426450146732794e+00
4.565430000000000064e+02,2.138093901292825549e+01
4.573260000000000218e+02,-9.376857775589032329e+00
4.581100000000000136e+02,-9.933704976723538138e+00
4.588929999999999723e+02,2.188759453221160101e+01
4.596759999999999877e+02,-1.813367027758586403e+01
4.604599999999999795e+02,-9.277029935418422468e+00
4.612429999999999950e+02,3.198860945943598821e+00
4.620260000000000105e+02,-6.588235958977963946e+01
4.628090000000000259e+02,-1.456089825239541291e+01
4.635919999999999845e+02,1.010395147157631044e+02
4.643750000000000000e+02,-4.768495280928984670e+00
4.651580000000000155e+02,-3.684025331005037884e+01
4.659409999999999741e+02,-1.403571469199387955e+01
4.667230000000000132e+02,8.680517224094378648e+00
4.675059999999999718e+02,-5.760835008777921651e+00
4.682880000000000109e+02,-5.989770159115547443e+01
4.690710000000000264e+02,4.604551083056382388e-01
4.698530000000000086e+02,-4.327713341905892719e+01
4.706360000000000241e+02,-3.222816225249058419e+01
4.714180000000000064e+02,-2.056384081384344853e+01
4.721999999999999886e+02,4.001997506547463246e+01
4.729820000000000277e+02,2.084839854846167029e+01
4.737640000000000100e+02,-2.070381130012241755e+01
4.745459999999999923e+02,9.856276338793652059e+00
4.753279999999999745e+02,-9.010648508640503707e+00
4.761100000000000136e+02,-3.487469506415213250e+00
4.768919999999999959e+02,5.222037139500198322e+01
4.776730000000000018e+02,-2.555269455716005389e+00
4.784549999999999841e+02,2.901322155393712166e+01
4.792359999999999900e+02,-6.475921626392003638e+00
4.800179999999999723e+02,-3.256345069667066383e+00
4.807989999999999782e+02,-6.060568285000427124e+01
4.815810000000000173e+02,-3.999309732295418307e+00
4.823620000000000232e+02,-2.385925122925673136e+01
4.831429999999999723e+02,-2.978303659734555353e+01
4.839239999999999782e+02,3.099902717858700196e+00
4.847049999999999841e+02,1.282876132167245764e+01
4.854859999999999900e+02,3.327176421117567173e+01
4.862669999999999959e+02,4.272680310176161100e+01
4.870480000000000018e+02,6.900482542960552301e+00
4.878279999999999745e+02,6.284792935059848595e+00
4.886089999999999804e+02,-2.800252028329045739e+00
4.893899999999999864e+02,-2.112149752530879354e+01
4.901700000000000159e+02,-3.778111657432688730e+01
4.909510000000000218e+02,2.658555030667128705e+01
4.917309999999999945e+02,3.338274682441617358e+01
4.925110000000000241e+02,-2.297713119752604882e+01
4.932919999999999732e+02,-2.745851368669039516e+01
4.940720000000000027e+02,-4.398056497441283597e+01
4.948519999999999754e+02,7.771821818187458764e-01
4.956320000000000050e+02,-4.717489788013678975e+01
4.964119999999999777e+02,-3.323917401173029873e+01
4.971920000000000073e+02,3.322186408613450936e+01
4.979710000000000036e+02,-1.816096426495816374e+01
4.987509999999999764e+02,5.040899616892065183e+01
4.995310000000000059e+02,3.213788926875561458e+01
5.003100000000000023e+02,-2.117771199462684706e+01
5.010899999999999750e+02,-4.550285256091649444e+01
5.018690000000000282e+02,4.996039290407518152e+00
5.026480000000000246e+02,5.473552136347115571e+00
5.034279999999999973e+02,-1.619328139713445225e+01
5.042069999999999936e+02,3.288059839538953355e+01
5.049859999999999900e+02,3.644661192242124770e+01
5.057649999999999864e+02,4.199752128916859562e+01
5.065439999999999827e+02,-2.974600570610517636e+01
5.073229999999999791e+02,-4.173557527633763442e+01
5.081019999999999754e+02,-3.760856465323721665e+01
5.088809999999999718e+02,-9.813058276176734651e+00
5.096589999999999918e+02,-3.201793310648437796e+01
5.104379999999999882e+02,-2.102410639798048209e+01
5.112160000000000082e+02,-1.210667568781096293e+01
5.119950000000000045e+02,-3.368439523881716013e+01
5.127730000000000246e+02,-4.459180695855329901e+01
5.135520000000000209e+02,-8.974634277572489793e+01
5.143300000000000409e+02,-2.981770625652331574e+01
5.151079999999999472e+02,3.119277676566130353e+01
5.158859999999999673e+02,-6.306940993298372433e+01
5.166639999999999873e+02,-3.703611701084173546e+01
5.174420000000000073e+02,-2.475293365393803668e+01
5.182200000000000273e+02,7.139960057531155257e+00
5.189980000000000473e+02,2.166175633186427518e+01
5.197749999999999773e+02,3.132533197670997360e+00
5.205529999999999973e+02,-5.034283517402018049e+01
5.213310000000000173e+02,1.992499482904656816e+01
5.221079999999999472e+02,-7.187791360453406497e+00
5.228859999999999673e+02,9.600089233785018550e+00
5.236630000000000109e+02,-3.688638548019269336e+01
5.244400000000000546e+02,4.638455290946919973e+01
5.252179999999999609e+02,-6.698034810325708577e+01
5.259950000000000045e+02,7.310782426866794914e+00
5.267720000000000482e+02,-7.203121888196482026e+00
5.275489999999999782e+02,-3.021824990156083146e+01
5.283260000000000218e+02,-2.861995343110935508e+01
5.291029999999999518e+02,5.787396473758407467e+01
5.298790000000000191e+02,-4.268472480431324101e+01
5.306559999999999491e+02,-5.918508279613187995e+01
5.314329999999999927e+02,-3.240470342945364024e+01
5.322089999999999463e+02,-1.422720975169714208e+01
5.329859999999999900e+02,7.635172988553362927e+01
5.337619999999999436e+02,-8.765534713412343137e+00
5.345389999999999873e+02,1.137210552506956063e+01
5.353150000000000546e+02,2.353399312419263723e+01
5.360910000000000082e+02,-4.471814001883979728e+01
5.368669999999999618e+02,1.223478966810102619e+01
5.376430000000000291e+02,-3.838414218401314315e+01
5.384189999999999827e+02,8.830691731041042658e-01
5.391950000000000500e+02,-2.423856069377494649e+01
5.399710000000000036e+02,-8.269309765961118330e+00
