Data from QEPB00791_17-18-57-140.txt Node

Date: Mon Jan 20 17:18:57 MST 2020
User: ecestudent
Spectrometer: QEPB0079
Trigger mode: 0
Integration Time (sec): 8.000000E-3
Scans to average: 1
Electric dark correction enabled: true
Nonlinearity correction enabled: false
Boxcar width: 0
XAxis mode: Wavelengths
Number of Pixels in Spectrum: 1044
>>>>>Begin Spectral Data<<<<<
1.988640000000000043e+02 2.550000000000000000e+01
2.149879999999999995e+02 2.850000000000000000e+01
2.310840000000000032e+02 2.850000000000000000e+01
2.471510000000000105e+02 3.350000000000000000e+01
2.631890000000000214e+02 3.950000000000000000e+01
2.791990000000000123e+02 5.050000000000000000e+01
2.951809999999999832e+02 8.250000000000000000e+01
3.111329999999999814e+02 2.365000000000000000e+02
3.270570000000000164e+02 2.605000000000000000e+02
3.429519999999999982e+02 3.265000000000000000e+02
3.588179999999999836e+02 5.135000000000000000e+02
3.746549999999999727e+02 1.655500000000000000e+03
3.904639999999999986e+02 6.454500000000000000e+03
4.062429999999999950e+02 3.179350000000000000e+04
4.219940000000000282e+02 1.888850000000000000e+04
4.377149999999999750e+02 5.102650000000000000e+04
4.534080000000000155e+02 1.779950000000000000e+04
4.690710000000000264e+02 1.539650000000000000e+04
4.847049999999999841e+02 1.790750000000000000e+04
5.003100000000000023e+02 1.138550000000000000e+04
5.158859999999999673e+02 1.122250000000000000e+04
5.314329999999999927e+02 1.557150000000000000e+04
5.469500000000000455e+02 6.313950000000000000e+04
5.624379999999999882e+02 2.867050000000000000e+04
5.778970000000000482e+02 6.313950000000000000e+04
5.933260000000000218e+02 2.334550000000000000e+04
6.087259999999999991e+02 1.454650000000000000e+04
6.240969999999999800e+02 1.234250000000000000e+04
6.394379999999999882e+02 1.154250000000000000e+04
6.547500000000000000e+02 1.095750000000000000e+04
6.700320000000000391e+02 1.066350000000000000e+04
6.852839999999999918e+02 1.036450000000000000e+04
7.005069999999999482e+02 1.019950000000000000e+04
7.157000000000000455e+02 9.173500000000000000e+03
7.308630000000000564e+02 7.462500000000000000e+03
7.459969999999999573e+02 5.308500000000000000e+03
7.611009999999999991e+02 4.045500000000000000e+03
7.761749999999999545e+02 2.824500000000000000e+03
7.912200000000000273e+02 1.957500000000000000e+03
8.062340000000000373e+02 1.346500000000000000e+03
8.212190000000000509e+02 8.585000000000000000e+02
8.361730000000000018e+02 6.985000000000000000e+02
8.510979999999999563e+02 4.855000000000000000e+02
8.659919999999999618e+02 3.535000000000000000e+02
8.808569999999999709e+02 3.125000000000000000e+02
8.956910000000000309e+02 3.115000000000000000e+02
9.104959999999999809e+02 2.675000000000000000e+02
9.252699999999999818e+02 1.735000000000000000e+02
9.400140000000000100e+02 6.750000000000000000e+01
9.547269999999999754e+02 3.950000000000000000e+01
9.694109999999999445e+02 3.850000000000000000e+01
9.840639999999999645e+02 4.250000000000000000e+01
9.986870000000000118e+02 5.000000000000000000e-01
