Data from FLMS155811_15-40-19-553.txt Node
Date: Tue May 14 15:40:19 MDT 2024
User: keyofd
Spectrometer: FLMS15581
Trigger mode: 0
Integration Time (sec): 2.500000E0
Scans to average: 5
Electric dark correction enabled: true
Nonlinearity correction enabled: false
Boxcar width: 0
XAxis mode: Wavelengths
Number of Pixels in Spectrum: 2048
>>>>>Begin Spectral Data<<<<<
298.026	-184.25
298.106	-184.25
298.185	-184.25
298.265	-215.94
298.344	-24.91
298.424	-102.98
298.503	18.71
298.583	-40.07
298.662	-19.86
298.741	-69.45
298.821	-97.47
298.9	-40.07
298.98	-108.95
299.059	9.07
299.138	-12.97
299.217	-27.67
299.297	-8.84
299.376	81.62
299.455	113.77
299.535	110.09
299.614	195.05
299.693	178.51
299.772	98.61
299.852	136.73
299.931	181.27
300.01	184.94
300.089	172.55
300.168	317.65
300.247	308.93
300.327	275.87
300.406	247.4
300.485	316.73
300.564	308.01
300.643	302.96
300.722	473.78
300.801	464.6
300.88	391.58
300.959	393.42
301.038	443.93
301.117	338.78
301.196	307.55
301.275	389.75
301.354	422.81
301.433	437.5
301.512	379.65
301.591	454.04
301.67	421.43
301.749	750.22
301.828	402.15
301.907	309.85
301.985	456.33
302.064	400.77
302.143	385.16
302.222	577.1
302.301	454.5
302.38	336.48
302.458	579.4
302.537	313.52
302.616	345.66
302.695	419.14
302.773	381.48
302.852	283.21
302.931	356.69
303.01	333.27
303.088	427.4
303.167	330.97
303.246	342.45
303.324	343.37
303.403	353.01
303.481	296.99
303.56	428.32
303.639	340.15
303.717	438.88
303.796	386.07
303.874	369.08
303.953	491.69
304.032	341.07
304.11	334.18
304.189	434.75
304.267	345.66
304.346	417.76
304.424	578.02
304.502	273.57
304.581	335.1
304.659	304.8
304.738	456.79
304.816	291.94
304.895	310.31
304.973	313.98
305.051	440.26
305.13	337.86
305.208	352.09
305.286	308.93
305.365	317.65
305.443	315.36
305.521	371.84
305.6	450.36
305.678	419.14
305.756	306.63
305.834	376.43
305.913	415
305.991	340.61
306.069	345.21
306.147	369.08
306.225	294.23
306.304	408.57
306.382	561.49
306.46	334.64
306.538	329.59
306.616	338.78
306.694	353.93
306.772	328.21
306.85	284.59
306.929	338.32
307.007	298.37
307.085	465.52
307.163	507.76
307.241	441.18
307.319	358.52
307.397	291.94
307.475	369.08
307.553	341.07
307.631	343.83
307.709	334.18
307.786	329.59
307.864	282.75
307.942	421.89
308.02	325
308.098	400.77
308.176	411.33
308.254	575.72
308.332	394.34
308.409	359.9
308.487	388.83
308.565	427.86
308.643	357.14
308.721	366.79
308.798	361.74
308.876	382.4
308.954	467.81
309.032	419.14
309.109	371.84
309.187	325.46
309.265	538.07
309.342	483.42
309.42	382.86
309.498	350.26
309.575	412.71
309.653	341.07
309.731	308.47
309.808	315.36
309.886	525.67
309.963	394.8
310.041	492.15
310.119	441.64
310.196	363.11
310.274	309.85
310.351	330.51
310.429	351.63
310.506	362.65
310.584	391.58
310.661	406.74
310.738	330.05
310.816	357.6
310.893	571.13
310.971	456.79
311.048	286.89
311.126	393.42
311.203	322.7
311.28	298.37
311.358	283.21
311.435	340.15
311.512	436.13
311.59	370
311.667	304.8
311.744	295.15
311.821	317.19
311.899	334.64
311.976	368.62
312.053	317.65
312.13	454.04
312.208	342.91
312.285	455.87
312.362	463.68
312.439	284.13
312.516	309.39
312.593	388.37
312.671	360.82
312.748	325
312.825	296.99
312.902	294.69
312.979	399.85
313.056	406.74
313.133	404.9
313.21	410.41
313.287	387.91
313.364	342.91
313.441	426.48
313.518	327.3
313.595	357.6
313.672	520.62
313.749	332.81
313.826	336.02
313.903	424.19
313.98	339.24
314.057	374.13
314.134	373.68
314.211	462.3
314.287	309.39
314.364	394.34
314.441	532.56
314.518	498.12
314.595	381.02
314.672	332.81
314.748	430.16
314.825	350.72
314.902	344.75
314.979	363.11
315.055	370.46
315.132	393.42
315.209	356.23
315.286	333.27
315.362	455.87
315.439	424.19
315.516	392.5
315.592	493.99
315.669	418.68
315.746	483.42
315.822	482.05
315.899	403.98
315.975	534.86
316.052	438.42
316.128	344.75
316.205	394.34
316.282	550.47
316.358	337.4
316.435	1196.57
316.511	426.94
316.588	341.53
316.664	325.92
316.741	341.07
316.817	460.01
316.893	333.72
316.97	291.48
317.046	378.27
317.123	347.04
317.199	510.06
317.275	372.3
317.352	302.04
317.428	374.59
317.504	338.78
317.581	316.73
317.657	451.74
317.733	360.36
317.81	295.15
317.886	377.35
317.962	431.53
318.038	408.57
318.115	388.83
318.191	307.09
318.267	398.93
318.343	317.65
318.419	431.99
318.496	391.13
318.572	387.91
318.648	424.19
318.724	301.12
318.8	370.46
318.876	325
318.952	337.4
319.028	384.7
319.105	341.99
319.181	374.13
319.257	393.88
319.333	355.31
319.409	326.38
319.485	402.61
319.561	367.25
319.637	336.48
319.713	349.34
319.789	295.15
319.865	366.79
319.94	325.46
320.016	313.52
320.092	373.68
320.168	398.01
320.244	375.05
320.32	370.46
320.396	298.37
320.472	363.57
320.547	496.74
320.623	324.54
320.699	462.3
320.775	364.03
320.851	368.17
320.926	374.59
321.002	330.05
321.078	347.04
321.154	370.46
321.229	369.08
321.305	443.47
321.381	376.43
321.456	297.91
321.532	383.78
321.608	312.14
321.683	311.22
321.759	338.32
321.835	447.15
321.91	328.67
321.986	423.73
322.061	486.18
322.137	401.69
322.212	349.34
322.288	341.99
322.364	350.26
322.439	464.14
322.515	371.38
322.59	381.48
322.666	501.33
322.741	608.79
322.816	308.01
322.892	442.1
322.967	675.83
323.043	330.97
323.118	375.05
323.193	424.19
323.269	428.78
323.344	327.3
323.42	322.7
323.495	432.45
323.57	328.67
323.646	319.49
323.721	421.89
323.796	325.46
323.871	374.59
323.947	379.19
324.022	359.9
324.097	368.17
324.172	376.43
324.248	421.43
324.323	364.95
324.398	645.98
324.473	358.98
324.548	341.99
324.623	460.92
324.699	414.09
324.774	543.58
324.849	370
324.924	303.42
324.999	388.37
325.074	399.85
325.149	401.23
325.224	522.92
325.299	431.99
325.374	535.77
325.449	367.71
325.524	354.39
325.599	287.8
325.674	391.58
325.749	531.64
325.824	361.74
325.899	317.65
325.974	399.85
326.049	364.95
326.124	472.86
326.199	379.19
326.273	451.28
326.348	527.97
326.423	492.61
326.498	460.92
326.573	416.38
326.648	499.5
326.722	299.74
326.797	493.53
326.872	338.32
326.947	313.98
327.021	295.15
327.096	314.9
327.171	365.87
327.245	349.8
327.32	347.96
327.395	312.14
327.47	348.42
327.544	426.48
327.619	333.72
327.693	1129.06
327.768	348.88
327.843	376.89
327.917	379.19
327.992	362.65
328.066	375.05
328.141	326.38
328.215	365.87
328.29	404.44
328.364	371.38
328.439	396.64
328.513	533.02
328.588	341.99
328.662	323.16
328.737	363.11
328.811	339.24
328.886	350.26
328.96	333.27
329.035	325.46
329.109	325.46
329.183	443.02
329.258	416.38
329.332	439.8
329.406	411.79
329.481	324.08
329.555	340.15
329.629	325
329.704	346.12
329.778	319.03
329.852	309.85
329.926	351.63
330.001	418.68
330.075	364.95
330.149	493.07
330.223	414.09
330.297	404.9
330.372	451.74
330.446	333.27
330.52	461.38
330.594	430.16
330.668	376.43
330.742	392.96
330.816	349.34
330.89	358.98
330.964	336.48
331.038	350.72
331.113	373.22
331.187	400.77
331.261	326.38
331.335	415
331.409	378.27
331.483	327.3
331.557	358.06
331.63	326.38
331.704	309.39
331.778	640.01
331.852	313.06
331.926	386.99
332	368.17
332.074	382.86
332.148	420.97
332.222	335.56
332.295	347.96
332.369	387.91
332.443	518.78
332.517	297.45
332.591	521.08
332.665	394.34
332.738	346.58
332.812	310.31
332.886	384.24
332.959	396.18
333.033	374.13
333.107	471.94
333.181	445.31
333.254	341.99
333.328	395.26
333.402	364.49
333.475	396.18
333.549	353.93
333.622	333.27
333.696	448.98
333.77	337.86
333.843	432.91
333.917	335.1
333.99	909.1
334.064	352.09
334.137	363.57
334.211	312.14
334.284	321.79
334.358	550.47
334.431	378.73
334.505	325.92
334.578	553.68
334.652	317.19
334.725	570.67
334.799	332.81
334.872	338.78
334.945	488.02
335.019	310.31
335.092	434.29
335.165	449.9
335.239	323.16
335.312	331.89
335.385	386.99
335.459	466.89
335.532	455.41
335.605	446.23
335.678	685.93
335.752	424.19
335.825	334.18
335.898	317.65
335.971	731.39
336.045	371.38
336.118	318.11
336.191	339.24
336.264	480.21
336.337	367.71
336.41	325.46
336.483	460.46
336.557	305.71
336.63	314.44
336.703	783.28
336.776	397.09
336.849	712.57
336.922	343.83
336.995	311.68
337.068	299.74
337.141	420.05
337.214	353.93
337.287	333.72
337.36	313.06
337.433	356.23
337.506	332.35
337.579	304.34
337.652	430.16
337.725	451.28
337.797	342.45
337.87	356.69
337.943	439.8
338.016	368.17
338.089	359.44
338.162	315.36
338.235	343.37
338.307	397.09
338.38	418.22
338.453	424.65
338.526	368.62
338.598	518.78
338.671	341.99
338.744	351.63
338.817	393.88
338.889	389.29
338.962	369.54
339.035	317.19
339.107	304.34
339.18	306.17
339.253	339.24
339.325	336.48
339.398	296.07
339.47	332.35
339.543	375.05
339.616	434.29
339.688	463.68
339.761	492.61
339.833	315.82
339.906	358.98
339.978	328.67
340.051	385.16
340.123	302.96
340.196	431.99
340.268	317.65
340.341	296.07
340.413	347.96
340.485	331.89
340.558	411.79
340.63	477
340.703	371.38
340.775	330.51
340.847	294.69
340.92	328.67
340.992	392.96
341.064	412.71
341.137	344.29
341.209	332.81
341.281	356.23
341.354	338.78
341.426	378.27
341.498	373.68
341.57	323.62
341.643	376.89
341.715	400.31
341.787	405.36
341.859	307.09
341.931	315.36
342.003	387.91
342.076	465.98
342.148	438.88
342.22	318.11
342.292	404.9
342.364	322.7
342.436	435.67
342.508	313.52
342.58	336.02
342.652	376.89
342.724	721.75
342.796	344.75
342.868	490.77
342.94	318.57
343.012	519.24
343.084	370.92
343.156	336.48
343.228	391.58
343.3	389.29
343.372	399.39
343.444	318.57
343.516	336.48
343.588	456.33
343.66	381.02
343.731	311.68
343.803	308.47
343.875	339.24
343.947	334.64
344.019	375.51
344.09	315.36
344.162	333.72
344.234	413.17
344.306	356.69
344.377	431.99
344.449	365.41
344.521	479.29
344.593	393.88
344.664	312.6
344.736	368.62
344.808	325
344.879	366.33
344.951	289.64
345.023	364.95
345.094	386.07
345.166	311.22
345.237	468.27
345.309	354.39
345.38	453.58
345.452	386.07
345.524	292.86
345.595	376.43
345.667	329.59
345.738	324.08
345.81	435.21
345.881	353.47
345.953	412.25
346.024	390.21
346.095	374.13
346.167	339.24
346.238	354.85
346.31	382.4
346.381	306.63
346.452	364.03
346.524	325.92
346.595	294.23
346.666	450.36
346.738	295.15
346.809	322.7
346.88	495.36
346.952	343.37
347.023	443.93
347.094	362.65
347.165	584.91
347.237	440.26
347.308	280
347.379	310.31
347.45	362.65
347.521	374.59
347.593	291.94
347.664	482.51
347.735	333.72
347.806	349.34
347.877	414.09
347.948	300.66
348.019	342.45
348.09	375.05
348.161	439.34
348.233	324.08
348.304	535.77
348.375	468.27
348.446	527.97
348.517	327.3
348.588	348.88
348.659	343.83
348.73	407.66
348.801	332.35
348.871	363.57
348.942	428.78
349.013	353.01
349.084	289.18
349.155	361.74
349.226	354.85
349.297	303.42
349.368	363.11
349.439	420.05
349.509	370
349.58	420.97
349.651	390.67
349.722	397.55
349.793	406.74
349.863	310.31
349.934	324.54
350.005	351.63
350.076	387.45
350.146	351.63
350.217	322.7
350.288	336.48
350.358	349.8
350.429	397.09
350.5	331.43
350.57	555.98
350.641	354.39
350.711	355.31
350.782	376.43
350.853	412.71
350.923	318.11
350.994	371.84
351.064	378.73
351.135	336.94
351.205	347.96
351.276	350.72
351.346	380.56
351.417	549.55
351.487	353.01
351.558	319.49
351.628	443.47
351.699	349.34
351.769	549.55
351.84	467.81
351.91	323.16
351.98	371.84
352.051	418.22
352.121	558.73
352.191	374.13
352.262	351.63
352.332	420.97
352.402	426.48
352.473	419.14
352.543	407.66
352.613	522.46
352.683	341.99
352.754	339.69
352.824	375.97
352.894	419.14
352.964	353.01
353.035	356.69
353.105	390.67
353.175	365.87
353.245	331.43
353.315	413.63
353.385	488.02
353.455	466.89
353.526	345.66
353.596	372.76
353.666	505.47
353.736	360.36
353.806	322.7
353.876	375.51
353.946	335.1
354.016	408.12
354.086	344.75
354.156	330.97
354.226	338.78
354.296	343.37
354.366	420.05
354.436	407.66
354.506	362.2
354.576	312.14
354.645	415
354.715	485.72
354.785	529.34
354.855	358.98
354.925	445.31
354.995	340.15
355.065	434.29
355.134	451.28
355.204	420.51
355.274	349.8
355.344	330.05
355.414	553.22
355.483	338.32
355.553	407.66
355.623	435.67
355.693	431.99
355.762	319.95
355.832	354.85
355.902	407.66
355.971	497.66
356.041	554.14
356.111	448.53
356.18	384.7
356.25	319.03
356.319	339.24
356.389	352.55
356.459	365.41
356.528	345.21
356.598	330.51
356.667	365.87
356.737	327.3
356.806	330.51
356.876	317.65
356.945	364.03
357.015	409.95
357.084	341.07
357.154	345.21
357.223	341.53
357.292	434.75
357.362	343.37
357.431	337.4
357.501	454.04
357.57	364.49
357.639	372.3
357.709	389.29
357.778	380.1
357.847	358.06
357.917	377.35
357.986	399.85
358.055	376.89
358.124	359.9
358.194	694.66
358.263	4339.8
358.332	576.64
358.401	382.4
358.471	380.1
358.54	351.17
358.609	341.99
358.678	457.71
358.747	330.05
358.816	429.7
358.886	407.66
358.955	386.99
359.024	342.45
359.093	399.39
359.162	585.83
359.231	381.48
359.3	346.12
359.369	466.89
359.438	369.08
359.507	382.4
359.576	368.62
359.645	428.78
359.714	730.02
359.783	422.35
359.852	384.7
359.921	342.45
359.99	353.01
360.059	304.34
360.128	396.64
360.197	350.26
360.266	472.86
360.334	370.46
360.403	323.62
360.472	354.39
360.541	353.47
360.61	434.29
360.679	414.54
360.747	347.5
360.816	380.1
360.885	341.99
360.954	398.93
361.022	428.32
361.091	359.9
361.16	344.29
361.228	483.42
361.297	378.73
361.366	550.93
361.434	550.01
361.503	650.57
361.572	383.32
361.64	305.71
361.709	294.69
361.778	337.4
361.846	350.26
361.915	388.37
361.983	332.35
362.052	352.09
362.12	528.43
362.189	390.67
362.257	400.77
362.326	353.47
362.394	370.92
362.463	452.66
362.531	402.61
362.6	384.24
362.668	424.65
362.737	355.31
362.805	458.63
362.873	445.31
362.942	415.46
363.01	408.57
363.079	353.93
363.147	363.57
363.215	361.28
363.284	376.43
363.352	334.64
363.42	379.19
363.488	351.17
363.557	333.27
363.625	334.64
363.693	336.48
363.761	460.01
363.83	462.3
363.898	348.42
363.966	291.48
364.034	349.34
364.102	331.89
364.171	359.44
364.239	408.12
364.307	337.86
364.375	362.2
364.443	482.51
364.511	393.42
364.579	506.38
364.647	391.58
364.715	324.54
364.783	347.5
364.851	342.91
364.919	653.33
364.987	573.43
365.055	344.75
365.123	365.87
365.191	361.74
365.259	591.34
365.327	361.74
365.395	356.23
365.463	367.71
365.531	450.82
365.599	394.8
365.667	437.05
365.735	443.47
365.802	367.71
365.87	410.41
365.938	378.27
366.006	393.42
366.074	362.65
366.142	310.31
366.209	452.66
366.277	474.7
366.345	358.06
366.413	338.78
366.48	673.99
366.548	343.37
366.616	363.57
366.683	345.66
366.751	350.26
366.819	394.34
366.886	440.72
366.954	676.29
367.022	360.82
367.089	434.29
367.157	379.65
367.224	2402.43
367.292	456.79
367.36	477.46
367.427	469.19
367.495	426.94
367.562	457.25
367.63	361.74
367.697	473.32
367.765	525.21
367.832	426.94
367.9	510.52
367.967	512.35
368.034	325.92
368.102	374.59
368.169	397.09
368.237	359.44
368.304	384.24
368.371	353.01
368.439	390.21
368.506	419.14
368.573	356.23
368.641	445.31
368.708	459.09
368.775	412.71
368.843	354.85
368.91	338.78
368.977	435.67
369.044	353.47
369.112	379.19
369.179	378.73
369.246	381.94
369.313	395.72
369.38	354.85
369.448	392.04
369.515	409.49
369.582	308.47
369.649	484.34
369.716	402.61
369.783	433.83
369.85	427.86
369.917	375.05
369.984	433.37
370.052	377.81
370.119	425.11
370.186	602.82
370.253	473.32
370.32	460.46
370.387	435.21
370.454	451.74
370.521	444.85
370.587	479.29
370.654	467.35
370.721	441.64
370.788	354.39
370.855	364.49
370.922	463.68
370.989	370.92
371.056	454.95
371.123	582.61
371.189	433.83
371.256	418.22
371.323	416.38
371.39	465.52
371.457	339.24
371.523	607.41
371.59	386.07
371.657	409.95
371.724	417.76
371.79	379.65
371.857	356.69
371.924	629.45
371.991	431.53
372.057	374.59
372.124	615.22
372.191	607.41
372.257	535.31
372.324	384.7
372.39	359.9
372.457	442.56
372.524	339.24
372.59	462.3
372.657	399.85
372.723	360.82
372.79	407.66
372.856	479.75
372.923	590.42
372.989	442.56
373.056	367.71
373.122	402.15
373.189	433.83
373.255	381.02
373.322	407.66
373.388	469.65
373.454	412.71
373.521	551.39
373.587	519.24
373.654	459.55
373.72	491.23
373.786	329.59
373.853	516.49
373.919	559.19
373.985	486.18
374.052	412.71
374.118	364.95
374.184	510.06
374.25	633.12
374.317	402.15
374.383	412.25
374.449	448.07
374.515	512.35
374.581	479.29
374.648	402.61
374.714	467.81
374.78	437.05
374.846	552.76
374.912	429.24
374.978	432.91
375.044	488.48
375.11	388.37
375.177	407.2
375.243	471.49
375.309	391.13
375.375	526.13
375.441	435.67
375.507	616.13
375.573	543.12
375.639	404.9
375.705	541.74
375.771	506.38
375.837	392.5
375.903	417.3
375.968	412.25
376.034	457.25
376.1	579.86
376.166	578.94
376.232	602.36
376.298	437.5
376.364	496.74
376.43	487.1
376.495	444.39
376.561	433.83
376.627	462.76
376.693	574.35
376.759	512.35
376.824	541.28
376.89	453.58
376.956	531.64
377.022	647.82
377.087	454.04
377.153	448.07
377.219	457.25
377.284	548.63
377.35	478.83
377.416	470.57
377.481	566.08
377.547	497.66
377.613	630.37
377.678	460.01
377.744	451.74
377.809	529.34
377.875	707.52
377.94	681.8
378.006	524.75
378.071	458.63
378.137	508.22
378.202	588.12
378.268	507.3
378.333	465.98
378.399	449.9
378.464	555.52
378.53	554.14
378.595	593.17
378.661	586.29
378.726	477.46
378.791	545.88
378.857	504.55
378.922	547.25
378.987	514.65
379.053	560.11
379.118	593.63
379.183	648.28
379.249	629.91
379.314	520.16
379.379	564.24
379.444	538.99
379.51	561.03
379.575	516.95
379.64	605.11
379.705	551.85
379.771	632.67
379.836	573.43
379.901	580.78
379.966	574.81
380.031	542.66
380.096	607.41
380.161	623.02
380.227	678.13
380.292	639.09
380.357	550.93
380.422	617.97
380.487	529.34
380.552	581.69
380.617	614.76
380.682	644.6
380.747	613.38
380.812	644.15
380.877	673.08
380.942	600.98
381.007	825.07
381.072	652.87
381.137	696.95
381.202	761.24
381.266	681.8
381.331	626.7
381.396	775.02
381.461	629.45
381.526	726.34
381.591	848.95
381.656	674.45
381.72	680.88
381.785	657
381.85	830.58
381.915	718.54
381.979	775.48
382.044	793.85
382.109	756.19
382.174	738.74
382.238	799.81
382.303	797.98
382.368	852.62
382.432	842.06
382.497	702.46
382.562	769.05
382.626	777.31
382.691	893.03
382.756	782.82
382.82	753.89
382.885	813.59
382.949	775.48
383.014	876.5
383.078	829.2
383.143	781.91
383.208	874.21
383.272	941.25
383.337	899.92
383.401	850.33
383.465	800.73
383.53	909.1
383.594	897.17
383.659	1018.85
383.723	883.85
383.788	847.57
383.852	907.27
383.916	1006.46
383.981	972.47
384.045	1006
384.109	923.34
384.174	1023.91
384.238	1138.25
384.302	949.06
384.367	1024.82
384.431	1084.98
384.495	1318.71
384.56	1021.15
384.624	1035.39
384.688	1056.97
384.752	1117.12
384.816	1084.52
384.881	1039.52
384.945	1189.22
385.009	1190.14
385.073	1157.53
385.137	1131.82
385.201	1200.24
385.265	1140.08
385.33	1170.39
385.394	1199.32
385.458	1259.48
385.522	1292.54
385.586	1273.71
385.65	1542.8
385.714	1364.63
385.778	1321.47
385.842	1330.65
385.906	1472.55
385.97	1417.9
386.034	1539.13
386.098	1379.33
386.162	1375.19
386.226	1433.97
386.29	1522.6
386.354	1533.16
386.417	1458.31
386.481	1590.1
386.545	1588.26
386.609	1551.99
386.673	1544.64
386.737	1697.1
386.8	1620.87
386.864	1794.45
386.928	1649.34
386.992	1934.96
387.056	1766.43
387.119	1825.21
387.183	1745.77
387.247	1982.72
387.31	1805.93
387.374	1840.37
387.438	1819.24
387.502	1941.85
387.565	1957.46
387.629	2231.15
387.692	1994.66
387.756	2013.94
387.82	2007.98
387.883	2097.06
387.947	2039.66
388.01	2361.1
388.074	2210.94
388.138	2162.27
388.201	2392.33
388.265	2336.3
388.328	2338.14
388.392	2540.19
388.455	2464.42
388.519	2470.85
388.582	2591.62
388.645	2459.83
388.709	2958.06
388.772	2518.15
388.836	2616.42
388.899	2609.07
388.962	2718.82
389.026	2607.69
389.089	2840.97
389.153	2891.48
389.216	2884.59
389.279	2853.83
389.343	2820.3
389.406	2955.77
389.469	3021.43
389.532	3144.04
389.596	3105.01
389.659	3120.16
389.722	3152.31
389.785	3227.16
389.848	3369.05
389.912	3339.66
389.975	3317.16
390.038	3395.22
390.101	3457.22
390.164	3606.46
390.227	3731.82
390.291	3696.46
390.354	3732.74
390.417	3805.29
390.48	3762.13
390.543	3902.18
390.606	3956.83
390.669	3898.51
390.732	4006.42
390.795	4084.49
390.858	4170.82
390.921	4348.07
390.984	4202.04
391.047	4279.19
391.11	4381.59
391.173	4558.84
391.236	4470.67
391.299	4793.95
391.362	4898.65
391.424	4797.17
391.487	4845.38
391.55	4942.73
391.613	5053.4
391.676	5157.18
391.739	5134.22
391.802	5362.45
391.864	5432.7
391.927	5396.89
391.99	5435
392.053	5487.81
392.115	5614.55
392.178	5716.95
392.241	5980.99
392.304	5812.46
392.366	6031.96
392.429	6414.02
392.492	6078.34
392.554	6156.41
392.617	6475.09
392.68	6326.77
392.742	6373.61
392.805	6352.03
392.867	6653.72
392.93	6704.23
392.992	6853.93
393.055	6856.23
393.118	6831.43
393.18	6856.23
393.243	7300.28
393.305	7238.74
393.368	7460.08
393.43	7333.34
393.493	7659.37
393.555	7553.76
393.618	7724.58
393.68	7777.39
393.742	7816.42
393.805	8113.52
393.867	8241.18
393.93	8268.73
393.992	8272.41
394.054	8484.56
394.117	8785.8
394.179	8661.35
394.241	8749.52
394.304	9066.37
394.366	9179.79
394.428	9137.54
394.49	9496.64
394.553	9528.78
394.615	9492.05
394.677	9784.1
394.739	9994.41
394.802	10242.84
394.864	10049.98
394.926	10345.7
394.988	10566.12
395.05	10647.4
395.112	10904.09
395.174	10941.29
395.237	11018.89
395.299	10892.61
395.361	11161.25
395.423	11262.27
395.485	11574.53
395.547	11776.12
395.609	11962.55
395.671	12256.44
395.733	12298.69
395.795	12544.82
395.857	12790.04
395.919	12797.84
395.981	12917.23
396.043	13037.55
396.105	13246.02
396.167	13426.49
396.229	13930.69
396.291	14176.83
396.352	14353.62
396.414	14382.55
396.476	14684.24
396.538	14869.3
396.6	15167.78
396.662	15418.51
396.724	15645.35
396.785	15887.35
396.847	16143.13
396.909	16387.42
396.971	16566.51
397.032	16699.68
397.094	16968.31
397.156	17258.53
397.218	17248.43
397.279	17267.25
397.341	17619.92
397.403	18008.41
397.464	18066.72
397.526	18432.71
397.588	18761.5
397.649	18850.58
397.711	19268.46
397.772	19628.93
397.834	20016.04
397.896	20044.51
397.957	20323.24
398.019	20534.02
398.08	20928.47
398.142	21222.82
398.203	21665.95
398.265	22435.57
398.326	22472.77
398.388	22534.76
398.449	22807.98
398.511	23424.23
398.572	23290.15
398.633	23779.66
398.695	23816.39
398.756	23995.48
398.818	24306.82
398.879	25237.62
398.94	25604.98
399.002	25799.23
399.063	25914.49
399.124	26409.05
399.186	26911.87
399.247	26641.86
399.308	27427.1
399.369	27621.8
399.431	27632.36
399.492	28663.73
399.553	28604.03
399.614	28899.3
399.676	29431.05
399.737	30389.87
399.798	30363.69
399.859	30989.59
399.92	31388.63
399.981	31617.77
400.042	31738.08
400.104	31921.76
400.165	32584.85
400.226	32918.69
400.287	33065.64
400.348	33480.3
400.409	34127.77
400.47	34461.61
400.531	34952.04
400.592	35703.75
400.653	35496.65
400.714	35643.14
400.775	36619.86
400.836	37017.53
400.897	37609.9
400.958	37897.36
401.019	38347.38
401.08	38142.57
401.141	39119.75
401.201	39550.03
401.262	40129.08
401.323	39751.62
401.384	40184.64
401.445	40516.65
401.506	41878.18
401.567	42507.75
401.627	42184.47
401.688	42233.6
401.749	43066.14
401.81	43564.37
401.87	44380.37
401.931	44948.4
401.992	45522.41
402.053	45445.72
402.113	46453.21
402.174	46768.68
402.235	47050.17
402.295	47440.95
402.356	47604.43
402.417	48404.36
402.477	48524.67
402.538	48799.73
402.598	49374.19
402.659	50003.3
402.719	49769.11
402.78	50394.54
402.841	50641.13
402.901	51148.09
402.962	50687.51
403.022	50919.87
403.083	51918.17
403.143	52336.5
403.204	52908.67
403.264	52899.49
403.324	53646.61
403.385	53614.46
403.445	53633.29
403.506	53678.75
403.566	54102.14
403.627	54614.15
403.687	55128.91
403.747	55136.72
403.808	55509.13
403.868	55599.59
403.928	56182.32
403.989	56178.65
404.049	55920.12
404.109	56340.29
404.169	56361.87
404.23	56558.41
404.29	56442.23
404.35	56644.74
404.41	56669.53
404.47	57221.49
404.531	57096.59
404.591	57324.36
404.651	58407.15
404.711	57756
404.771	57397.37
404.831	57224.71
404.892	57656.36
404.952	58129.34
405.012	57557.17
405.072	57882.74
405.132	58588.08
405.192	58254.7
405.252	58593.59
405.312	58200.05
405.372	58746.5
405.432	57913.51
405.492	58306.13
405.552	58575.68
405.612	58379.14
405.672	58729.05
405.732	58741.91
405.792	58495.32
405.852	58422.31
405.912	58785.99
405.971	58845.69
406.031	58841.1
406.091	58679
406.151	58680.84
406.211	58732.27
406.271	58976.1
406.33	58641.81
406.39	58169.29
406.45	57751.41
406.51	58128.88
406.57	58409.45
406.629	58806.66
406.689	58489.81
406.749	58416.34
406.808	58553.18
406.868	58031.07
406.928	57914.43
406.988	58134.39
407.047	57997.09
407.107	58186.74
407.166	57952.08
407.226	57399.21
407.286	57732.13
407.345	57872.18
407.405	57841.42
407.464	57709.17
407.524	57347.32
407.584	57137
407.643	56905.56
407.703	56699.38
407.762	56636.47
407.822	56297.58
407.881	56178.19
407.941	56100.58
408	56369.67
408.059	56135.94
408.119	55353
408.178	55229.48
408.238	55287.34
408.297	54980.13
408.356	54514.5
408.416	54279.85
408.475	54040.14
408.535	54102.14
408.594	53547.42
408.653	53619.97
408.712	53131.84
408.772	52697.9
408.831	52332.83
408.89	51946.64
408.95	52221.24
409.009	51631.17
409.068	51119.16
409.127	50887.72
409.186	50838.59
409.246	50178.26
409.305	50305.91
409.364	50134.63
409.423	50368.82
409.482	50122.23
409.541	49128.98
409.6	48466.81
409.66	48352.47
409.719	47701.78
409.778	47095.17
409.837	46378.36
409.896	45720.32
409.955	45835.12
410.014	45043.46
410.073	45512.3
410.132	44128.73
410.191	43658.51
410.25	44205.42
410.309	44139.29
410.368	43777.44
410.427	43473.45
410.486	43592.84
410.545	42602.34
410.603	42313.96
410.662	41861.19
410.721	40957.48
410.78	41333.57
410.839	40664.05
410.898	39989.94
410.957	39856.77
411.015	39464.62
411.074	38543
411.133	38174.72
411.192	37653.98
411.25	37226.47
411.309	36813.64
411.368	36451.79
411.427	36928.9
411.485	36638.69
411.544	36901.35
411.603	36204.74
411.661	35842.89
411.72	35330.88
411.779	35348.33
411.837	34734.38
411.896	34554.37
411.955	34312.83
412.013	33591.42
412.072	33556.98
412.13	33587.29
412.189	32472.35
412.247	32477.4
412.306	32459.95
412.364	31926.82
412.423	32009.47
412.481	31538.33
412.54	31466.7
412.598	31031.83
412.657	31184.29
412.715	30928.05
412.774	30898.2
412.832	30588.7
412.891	30691.56
412.949	30356.35
413.007	29959.14
413.066	29687.75
413.124	29271.25
413.182	29224.87
413.241	29319.47
413.299	28437.8
413.357	28024.98
413.416	28065.39
413.474	27542.36
413.532	27985.95
413.59	27577.26
413.649	27449.14
413.707	26892.13
413.765	26767.22
413.823	26928.4
413.881	26582.62
413.94	26137.2
413.998	26191.38
414.056	26289.65
414.114	26226.28
414.172	25836.88
414.23	25693.15
414.288	25592.59
414.347	25631.62
414.405	25444.72
414.463	25823.1
414.521	25809.79
414.579	25556.77
414.637	25317.98
414.695	24798.17
414.753	24899.65
414.811	24617.24
414.869	24567.65
414.927	24581.42
414.985	24675.56
415.043	24186.97
415.101	24384.42
415.158	23788.38
415.216	23377.85
415.274	23595.06
415.332	23233.66
415.39	23132.64
415.448	23081.21
415.506	23240.55
415.563	22809.36
415.621	22430.52
415.679	22284.49
415.737	22099.44
415.795	22070.97
415.852	22120.56
415.91	21840.45
415.968	21909.79
416.026	21885.91
416.083	21828.51
416.141	21337.16
416.199	21111.69
416.256	21212.72
416.314	21225.57
416.372	20711.27
416.429	20839.39
416.487	20801.73
416.544	20713.11
416.602	20450.9
416.66	20189.16
416.717	20013.28
416.775	20023.38
416.832	20184.56
416.89	20272.27
416.947	20319.57
417.005	19816.28
417.062	19612.86
417.12	19100.39
417.177	18993.39
417.235	19044.37
417.292	18685.27
417.35	18709.61
417.407	18833.13
417.464	18650.83
417.522	18293.11
417.579	18204.03
417.637	18300.92
417.694	17926.67
417.751	17882.59
417.809	17479.86
417.866	17458.74
417.923	17588.24
417.981	17197.91
418.038	16906.32
418.095	16774.53
418.152	16782.8
418.21	16665.7
418.267	16432.88
418.324	16138.08
418.381	16067.82
418.438	15760.61
418.496	15951.64
418.553	15944.29
418.61	15716.53
418.667	15568.67
418.724	15548.92
418.781	15121.86
418.838	15182.02
418.895	15149.87
418.952	15133.34
419.01	15073.65
419.067	14882.62
419.124	14670.01
419.181	14569.9
419.238	14521.69
419.295	14478.98
419.352	14187.39
419.409	13813.6
419.466	13671.24
419.523	13561.95
419.579	13491.24
419.636	13394.8
419.693	13183.57
419.75	13194.59
419.807	12873.61
419.864	13121.12
419.921	12872.23
419.978	12795.55
420.034	12835.96
420.091	12626.1
420.148	12517.27
420.205	12563.19
420.262	12391.91
420.318	12166.9
420.375	11977.25
420.432	11872.55
420.489	11736.17
420.545	11797.7
420.602	11605.29
420.659	11432.18
420.715	11395.9
420.772	11261.35
420.829	11301.76
420.885	11166.76
420.942	11267.78
420.999	10981.24
421.055	10909.14
421.112	10538.57
421.168	10495.4
421.225	10524.79
421.282	10390.25
421.338	10167.53
421.395	10135.39
421.451	10060.08
421.508	10118.86
421.564	10009.11
421.621	9805.68
421.677	9757.47
421.734	9565.06
421.79	9661.03
421.846	9545.77
421.903	9360.26
421.959	9082.44
422.016	9204.59
422.072	9048
422.128	8764.67
422.185	8775.23
422.241	8804.62
422.297	8431.29
422.354	8753.19
422.41	8622.78
422.466	8212.71
422.523	8472.62
422.579	8140.62
422.635	8033.16
422.691	7927.09
422.748	7851.32
422.804	7980.36
422.86	8227.86
422.916	7709.43
422.972	7532.17
423.029	7377.88
423.085	7499.11
423.141	7384.77
423.197	7404.98
423.253	7181.34
423.309	7151.5
423.365	6984.35
423.421	7030.73
423.477	6842.91
423.533	7115.68
423.589	6790.56
423.645	6728.11
423.701	6613.31
423.757	6544.89
423.813	6633.52
423.869	6503.56
423.925	6421.36
423.981	6480.14
424.037	6369.47
424.093	6345.6
424.149	6180.28
424.205	6142.17
424.261	6276.72
424.317	6042.06
424.373	6216.1
424.428	6137.12
424.484	5947.47
424.54	5893.28
424.596	5866.65
424.652	5828.08
424.708	5819.81
424.763	5611.33
424.819	5576.89
424.875	5454.29
424.931	5416.63
424.986	5489.64
425.042	5431.33
425.098	5507.09
425.153	5374.84
425.209	5226.52
425.265	5266.93
425.32	5189.33
425.376	5206.78
425.432	5193.92
425.487	5051.11
425.543	4986.36
425.598	4819.21
425.654	4829.77
425.709	4849.98
425.765	4724.61
425.82	4789.82
425.876	4748.03
425.932	4748.95
425.987	4660.78
426.042	4731.04
426.098	4693.85
426.153	4586.39
426.209	4511.08
426.264	4468.84
426.32	4475.73
426.375	4366.9
426.43	4541.39
426.486	4376.54
426.541	4579.05
426.597	4457.36
426.652	4346.23
426.707	4374.7
426.763	4251.18
426.818	4217.2
426.873	4130.87
426.928	4271.84
426.984	4174.03
427.039	4235.1
427.094	4206.17
427.149	4112.04
427.205	4067.04
427.26	4151.53
427.315	4005.96
427.37	3980.25
427.425	3894.38
427.48	3918.71
427.536	4010.1
427.591	3873.71
427.646	4004.13
427.701	3918.71
427.756	3810.34
427.811	3797.03
427.866	3792.89
427.921	3825.5
427.976	3763.04
428.031	3669.37
428.086	3629.88
428.141	3697.84
428.196	3783.71
428.251	3688.65
428.306	3719.88
428.361	3677.63
428.416	3622.99
428.471	3721.72
428.526	3637.22
428.581	3575.69
428.636	3602.78
428.691	3475.13
428.745	3531.61
428.8	3463.65
428.855	3560.54
428.91	3470.07
428.965	3512.78
429.02	3488.44
429.074	3493.49
429.129	3515.99
429.184	3534.82
429.239	3400.28
429.293	3384.2
429.348	3340.12
429.403	3425.07
429.457	3396.14
429.512	3331.85
429.567	3269.86
429.621	3363.54
429.676	3411.76
429.731	3307.98
429.785	3253.33
429.84	3295.58
429.895	3202.82
429.949	3483.39
430.004	3171.59
430.058	3094.91
430.113	3052.66
430.167	3116.49
430.222	3082.51
430.276	3202.82
430.331	3144.96
430.385	3166.08
430.44	2945.67
430.494	3020.97
430.549	3038.88
430.603	3048.99
430.657	2957.15
430.712	2833.16
430.766	2875.41
430.821	2896.99
430.875	2866.22
430.929	2863.93
430.984	2823.98
431.038	2928.22
431.092	2705.96
431.147	2701.37
431.201	2800.1
431.255	2792.29
431.309	2673.36
431.364	2622.85
431.418	2617.8
431.472	2649.02
431.526	2590.7
431.581	2734.89
431.635	2603.56
431.689	2546.62
431.743	2446.05
431.797	2480.03
431.851	2424.01
431.906	2392.33
431.96	2357.43
432.014	2498.4
432.068	2401.51
432.122	2387.28
432.176	2338.6
432.23	2397.38
432.284	2325.28
432.338	2279.82
432.392	2175.12
432.446	2207.73
432.5	2338.6
432.554	2232.52
432.608	2279.36
432.662	2259.62
432.716	2234.36
432.77	2125.53
432.824	2024.51
432.878	2024.05
432.931	2016.24
432.985	2064
433.039	1925.32
433.093	1904.2
433.147	2047.47
433.201	1918.43
433.254	1843.12
433.308	1863.79
433.362	2009.35
433.416	2200.84
433.47	1877.56
433.523	1875.27
433.577	1937.72
433.631	1801.79
433.684	1793.53
433.738	1898.69
433.792	1830.26
433.846	1818.32
433.899	1798.12
433.953	1671.84
434.006	1812.81
434.06	1720.06
434.114	1661.28
434.167	1661.28
434.221	1661.28
