Data from FLMS155811_12-25-18-902.txt Node
Date: Mon Mar 23 12:25:18 MDT 2020
User: ECEn Student
Spectrometer: FLMS15581
Trigger mode: 0
Integration Time (sec): 1.400000E-1
Scans to average: 1
Electric dark correction enabled: true
Nonlinearity correction enabled: false
Boxcar width: 0
XAxis mode: Wavelengths
Number of Pixels in Spectrum: 2048
>>>>>Begin Spectral Data<<<<<
298.026	-29.56
298.106	-29.56
298.185	-29.56
298.265	-77.78
298.344	-73.19
298.424	-77.78
298.503	-77.78
298.583	-89.26
298.662	-57.11
298.741	-82.37
298.821	-70.89
298.9	-43.34
298.98	-43.34
299.059	-13.49
299.138	46.21
299.217	66.87
299.297	57.69
299.376	71.46
299.455	99.02
299.535	82.94
299.614	131.16
299.693	108.2
299.772	179.38
299.852	183.97
299.931	179.38
300.01	213.82
300.089	220.7
300.168	172.49
300.247	349.28
300.327	241.37
300.406	259.74
300.485	335.5
300.564	349.28
300.643	289.58
300.722	406.68
300.801	337.8
300.88	333.21
300.959	386.02
301.038	420.46
301.117	374.54
301.196	353.87
301.275	314.84
301.354	399.79
301.433	358.46
301.512	372.24
301.591	369.94
301.67	388.31
301.749	429.64
301.828	431.94
301.907	388.31
301.985	351.58
302.064	360.76
302.143	344.69
302.222	427.34
302.301	406.68
302.38	337.8
302.458	402.09
302.537	392.9
302.616	392.9
302.695	360.76
302.773	404.38
302.852	344.69
302.931	418.16
303.01	363.06
303.088	333.21
303.167	436.53
303.246	402.09
303.324	346.98
303.403	397.5
303.481	379.13
303.56	369.94
303.639	404.38
303.717	344.69
303.796	360.76
303.874	319.43
303.953	301.06
304.032	340.1
304.11	369.94
304.189	342.39
304.267	353.87
304.346	367.65
304.424	289.58
304.502	346.98
304.581	360.76
304.659	365.35
304.738	298.77
304.816	346.98
304.895	404.38
304.973	379.13
305.051	344.69
305.13	420.46
305.208	353.87
305.286	335.5
305.365	342.39
305.443	328.62
305.521	358.46
305.6	328.62
305.678	333.21
305.756	379.13
305.834	381.42
305.913	372.24
305.991	326.32
306.069	360.76
306.147	328.62
306.225	351.58
306.304	369.94
306.382	406.68
306.46	360.76
306.538	372.24
306.616	383.72
306.694	328.62
306.772	397.5
306.85	457.19
306.929	346.98
307.007	349.28
307.085	381.42
307.163	351.58
307.241	335.5
307.319	399.79
307.397	390.61
307.475	333.21
307.553	397.5
307.631	365.35
307.709	383.72
307.786	365.35
307.864	342.39
307.942	429.64
308.02	422.75
308.098	399.79
308.176	395.2
308.254	392.9
308.332	399.79
308.409	372.24
308.487	392.9
308.565	395.2
308.643	349.28
308.721	379.13
308.798	425.05
308.876	344.69
308.954	427.34
309.032	349.28
309.109	365.35
309.187	392.9
309.265	374.54
309.342	369.94
309.42	372.24
309.498	399.79
309.575	372.24
309.653	312.54
309.731	346.98
309.808	346.98
309.886	346.98
309.963	402.09
310.041	386.02
310.119	399.79
310.196	294.18
310.274	390.61
310.351	390.61
310.429	353.87
310.506	360.76
310.584	390.61
310.661	346.98
310.738	360.76
310.816	333.21
310.893	397.5
310.971	402.09
311.048	353.87
311.126	369.94
311.203	443.42
311.28	402.09
311.358	390.61
311.435	342.39
311.512	397.5
311.59	365.35
311.667	376.83
311.744	346.98
311.821	333.21
311.899	448.01
311.976	353.87
312.053	395.2
312.13	353.87
312.208	346.98
312.285	358.46
312.362	369.94
312.439	395.2
312.516	346.98
312.593	399.79
312.671	436.53
312.748	402.09
312.825	367.65
312.902	381.42
312.979	369.94
313.056	337.8
313.133	358.46
313.21	353.87
313.287	351.58
313.364	379.13
313.441	344.69
313.518	399.79
313.595	392.9
313.672	388.31
313.749	397.5
313.826	406.68
313.903	333.21
313.98	386.02
314.057	411.27
314.134	392.9
314.211	392.9
314.287	365.35
314.364	390.61
314.441	413.57
314.518	363.06
314.595	340.1
314.672	372.24
314.748	402.09
314.825	381.42
314.902	392.9
314.979	408.98
315.055	406.68
315.132	386.02
315.209	402.09
315.286	418.16
315.362	402.09
315.439	365.35
315.516	436.53
315.592	340.1
315.669	397.5
315.746	408.98
315.822	427.34
315.899	392.9
315.975	340.1
316.052	461.78
316.128	438.82
316.205	443.42
316.282	390.61
316.358	344.69
316.435	443.42
316.511	408.98
316.588	351.58
316.664	425.05
316.741	365.35
316.817	365.35
316.893	434.23
316.97	392.9
317.046	475.56
317.123	386.02
317.199	496.23
317.275	448.01
317.352	399.79
317.428	330.91
317.504	399.79
317.581	408.98
317.657	427.34
317.733	383.72
317.81	386.02
317.886	369.94
317.962	383.72
318.038	461.78
318.115	395.2
318.191	367.65
318.267	411.27
318.343	340.1
318.419	324.02
318.496	372.24
318.572	431.94
318.648	450.3
318.724	395.2
318.8	406.68
318.876	356.17
318.952	376.83
319.028	418.16
319.105	468.67
319.181	461.78
319.257	367.65
319.333	464.08
319.409	425.05
319.485	418.16
319.561	466.38
319.637	358.46
319.713	406.68
319.789	379.13
319.865	457.19
319.94	408.98
320.016	386.02
320.092	369.94
320.168	397.5
320.244	358.46
320.32	388.31
320.396	408.98
320.472	397.5
320.547	392.9
320.623	431.94
320.699	383.72
320.775	420.46
320.851	406.68
320.926	408.98
321.002	381.42
321.078	367.65
321.154	408.98
321.229	397.5
321.305	369.94
321.381	448.01
321.456	427.34
321.532	383.72
321.608	365.35
321.683	379.13
321.759	372.24
321.835	337.8
321.91	367.65
321.986	413.57
322.061	402.09
322.137	388.31
322.212	390.61
322.288	399.79
322.364	408.98
322.439	413.57
322.515	406.68
322.59	360.76
322.666	425.05
322.741	425.05
322.816	404.38
322.892	374.54
322.967	461.78
323.043	406.68
323.118	457.19
323.193	464.08
323.269	422.75
323.344	374.54
323.42	406.68
323.495	413.57
323.57	305.66
323.646	445.71
323.721	404.38
323.796	480.15
323.871	381.42
323.947	425.05
324.022	411.27
324.097	427.34
324.172	392.9
324.248	429.64
324.323	461.78
324.398	404.38
324.473	461.78
324.548	418.16
324.623	349.28
324.699	388.31
324.774	367.65
324.849	402.09
324.924	415.86
324.999	395.2
325.074	392.9
325.149	386.02
325.224	381.42
325.299	365.35
325.374	413.57
325.449	376.83
325.524	477.86
325.599	452.6
325.674	390.61
325.749	505.41
325.824	399.79
325.899	395.2
325.974	484.75
326.049	448.01
326.124	454.9
326.199	383.72
326.273	386.02
326.348	367.65
326.423	390.61
326.498	356.17
326.573	340.1
326.648	367.65
326.722	413.57
326.797	452.6
326.872	427.34
326.947	431.94
327.021	395.2
327.096	363.06
327.171	429.64
327.245	434.23
327.32	372.24
327.395	358.46
327.47	411.27
327.544	390.61
327.619	466.38
327.693	425.05
327.768	436.53
327.843	367.65
327.917	420.46
327.992	353.87
328.066	434.23
328.141	402.09
328.215	376.83
328.29	436.53
328.364	383.72
328.439	388.31
328.513	418.16
328.588	395.2
328.662	397.5
328.737	376.83
328.811	438.82
328.886	388.31
328.96	404.38
329.035	392.9
329.109	381.42
329.183	468.67
329.258	438.82
329.332	445.71
329.406	386.02
329.481	411.27
329.555	445.71
329.629	441.12
329.704	443.42
329.778	367.65
329.852	390.61
329.926	374.54
330.001	422.75
330.075	434.23
330.149	441.12
330.223	420.46
330.297	358.46
330.372	344.69
330.446	429.64
330.52	422.75
330.594	459.49
330.668	441.12
330.742	411.27
330.816	395.2
330.89	386.02
330.964	441.12
331.038	349.28
331.113	413.57
331.187	422.75
331.261	422.75
331.335	399.79
331.409	408.98
331.483	418.16
331.557	381.42
331.63	404.38
331.704	457.19
331.778	457.19
331.852	420.46
331.926	434.23
332	473.26
332.074	468.67
332.148	386.02
332.222	454.9
332.295	374.54
332.369	392.9
332.443	459.49
332.517	404.38
332.591	392.9
332.665	386.02
332.738	376.83
332.812	404.38
332.886	468.67
332.959	427.34
333.033	418.16
333.107	427.34
333.181	395.2
333.254	372.24
333.328	388.31
333.402	425.05
333.475	392.9
333.549	418.16
333.622	388.31
333.696	420.46
333.77	397.5
333.843	404.38
333.917	438.82
333.99	383.72
334.064	427.34
334.137	392.9
334.211	395.2
334.284	431.94
334.358	459.49
334.431	457.19
334.505	422.75
334.578	408.98
334.652	418.16
334.725	436.53
334.799	399.79
334.872	358.46
334.945	365.35
335.019	415.86
335.092	425.05
335.165	457.19
335.239	386.02
335.312	376.83
335.385	429.64
335.459	415.86
335.532	468.67
335.605	390.61
335.678	473.26
335.752	367.65
335.825	466.38
335.898	427.34
335.971	438.82
336.045	429.64
336.118	450.3
336.191	454.9
336.264	415.86
336.337	445.71
336.41	496.23
336.483	473.26
336.557	360.76
336.63	411.27
336.703	470.97
336.776	349.28
336.849	452.6
336.922	434.23
336.995	395.2
337.068	379.13
337.141	395.2
337.214	452.6
337.287	475.56
337.36	450.3
337.433	406.68
337.506	386.02
337.579	411.27
337.652	468.67
337.725	326.32
337.797	397.5
337.87	399.79
337.943	418.16
338.016	473.26
338.089	475.56
338.162	466.38
338.235	466.38
338.307	420.46
338.38	406.68
338.453	445.71
338.526	404.38
338.598	450.3
338.671	376.83
338.744	415.86
338.817	443.42
338.889	418.16
338.962	441.12
339.035	395.2
339.107	457.19
339.18	365.35
339.253	406.68
339.325	445.71
339.398	390.61
339.47	399.79
339.543	404.38
339.616	429.64
339.688	397.5
339.761	443.42
339.833	388.31
339.906	395.2
339.978	372.24
340.051	425.05
340.123	448.01
340.196	434.23
340.268	445.71
340.341	351.58
340.413	452.6
340.485	519.19
340.558	452.6
340.63	516.89
340.703	425.05
340.775	420.46
340.847	461.78
340.92	443.42
340.992	425.05
341.064	429.64
341.137	454.9
341.209	452.6
341.281	457.19
341.354	434.23
341.426	454.9
341.498	443.42
341.57	420.46
341.643	386.02
341.715	411.27
341.787	475.56
341.859	374.54
341.931	436.53
342.003	431.94
342.076	422.75
342.148	514.59
342.22	468.67
342.292	438.82
342.364	408.98
342.436	413.57
342.508	459.49
342.58	427.34
342.652	436.53
342.724	457.19
342.796	404.38
342.868	422.75
342.94	493.93
343.012	466.38
343.084	491.63
343.156	464.08
343.228	418.16
343.3	491.63
343.372	413.57
343.444	457.19
343.516	516.89
343.588	457.19
343.66	411.27
343.731	445.71
343.803	413.57
343.875	319.43
343.947	408.98
344.019	413.57
344.09	448.01
344.162	468.67
344.234	427.34
344.306	457.19
344.377	482.45
344.449	491.63
344.521	413.57
344.593	475.56
344.664	473.26
344.736	406.68
344.808	452.6
344.879	450.3
344.951	427.34
345.023	516.89
345.094	429.64
345.166	429.64
345.237	477.86
345.309	466.38
345.38	429.64
345.452	413.57
345.524	514.59
345.595	376.83
345.667	422.75
345.738	500.82
345.81	445.71
345.881	459.49
345.953	500.82
346.024	487.04
346.095	466.38
346.167	470.97
346.238	431.94
346.31	415.86
346.381	436.53
346.452	436.53
346.524	484.75
346.595	441.12
346.666	438.82
346.738	443.42
346.809	425.05
346.88	487.04
346.952	505.41
347.023	487.04
347.094	457.19
347.165	420.46
347.237	487.04
347.308	519.19
347.379	473.26
347.45	441.12
347.521	459.49
347.593	464.08
347.664	457.19
347.735	512.3
347.806	459.49
347.877	464.08
347.948	457.19
348.019	510
348.09	445.71
348.161	445.71
348.233	434.23
348.304	464.08
348.375	507.71
348.446	512.3
348.517	470.97
348.588	443.42
348.659	466.38
348.73	475.56
348.801	468.67
348.871	489.34
348.942	461.78
349.013	569.7
349.084	473.26
349.155	487.04
349.226	420.46
349.297	429.64
349.368	454.9
349.439	489.34
349.509	487.04
349.58	510
349.651	477.86
349.722	516.89
349.793	493.93
349.863	459.49
349.934	493.93
350.005	555.92
350.076	438.82
350.146	477.86
350.217	477.86
350.288	537.55
350.358	526.07
350.429	510
350.5	510
350.57	532.96
350.641	475.56
350.711	553.63
350.782	475.56
350.853	562.81
350.923	473.26
350.994	500.82
351.064	576.59
351.135	542.15
351.205	571.99
351.276	526.07
351.346	571.99
351.417	569.7
351.487	528.37
351.558	526.07
351.628	613.32
351.699	558.22
351.769	583.47
351.84	581.18
351.91	599.55
351.98	555.92
352.051	661.54
352.121	728.12
352.191	682.2
352.262	567.4
352.332	695.98
352.402	721.23
352.473	723.53
352.543	764.86
352.613	785.52
352.683	767.15
352.754	806.19
352.824	822.26
352.894	810.78
352.964	810.78
353.035	861.29
353.105	854.4
353.175	925.58
353.245	847.51
353.315	943.95
353.385	1033.49
353.455	1070.23
353.526	1038.08
353.596	1095.48
353.666	1157.48
353.736	1173.55
353.806	1265.39
353.876	1235.54
353.946	1283.76
354.016	1368.71
354.086	1419.22
354.156	1423.81
354.226	1490.4
354.296	1520.25
354.366	1616.68
354.436	1798.06
354.506	1759.03
354.576	1857.76
354.645	1894.49
354.715	1997.82
354.785	2163.13
354.855	2064.4
354.925	2124.1
354.995	2294
355.065	2312.37
355.134	2459.31
355.204	2466.2
355.274	2560.34
355.344	2594.78
355.414	2916.22
355.483	2957.55
355.553	3074.64
355.623	3058.57
355.693	3230.77
355.762	3382.31
355.832	3380.01
355.902	3655.53
355.971	3641.76
356.041	3875.95
356.111	4016.01
356.18	4156.06
356.25	4252.5
356.319	4534.91
356.389	4550.98
356.459	4736.95
356.528	4971.15
356.598	5097.43
356.667	5166.31
356.737	5540.56
356.806	5584.18
356.876	5705.87
356.945	5969.91
357.015	6169.66
357.084	6376.31
357.154	6608.2
357.223	6601.31
357.292	7094.96
357.362	7145.47
357.431	7556.45
357.501	7639.11
357.57	7898.56
357.639	8029.43
357.709	8467.97
357.778	8523.07
357.847	8821.56
357.917	9276.17
357.986	9457.55
358.055	9767.51
358.124	9721.59
358.194	10334.63
358.263	10718.06
358.332	10874.19
358.401	11248.44
358.471	11409.16
358.54	11817.85
358.609	12031.38
358.678	12440.07
358.747	12747.73
358.816	13048.51
358.886	13735.02
358.955	13813.08
359.024	14017.43
359.093	14621.28
359.162	14965.68
359.231	15261.86
359.3	15732.54
359.369	16152.71
359.438	16467.27
359.507	16648.65
359.576	17055.05
359.645	17794.36
359.714	18170.91
359.783	18382.14
359.852	18859.71
359.921	19328.1
359.99	19481.93
360.059	20505.95
360.128	20671.26
360.197	21148.83
360.266	21663.14
360.334	21901.92
360.403	22482.81
360.472	23107.33
360.541	23561.94
360.61	24214
360.679	24884.44
360.747	25178.33
360.816	25476.81
360.885	26296.48
360.954	26787.83
361.022	27421.53
361.091	28064.41
361.16	28815.21
361.228	29134.35
361.297	29954.03
361.366	30546.4
361.434	30886.21
361.503	31682.92
361.572	32091.61
361.64	32605.92
361.709	33361.31
361.778	33907.76
361.846	34210.83
361.915	35723.9
361.983	36467.81
362.052	36702
362.12	37383.91
362.189	38072.72
362.257	38903.87
362.326	39523.8
362.394	40031.21
362.463	40522.56
362.531	41142.48
362.6	41856.54
362.668	42827.75
362.737	43142.31
362.805	43902.29
362.873	44483.18
362.942	45702.36
363.01	45729.91
363.079	46446.26
363.147	47107.51
363.215	47484.06
363.284	48163.68
363.352	49008.61
363.42	49559.65
363.488	50096.92
363.557	50836.23
363.625	51295.44
363.693	51424.01
363.761	52186.29
363.83	52450.33
363.898	53031.22
363.966	53040.4
364.034	54041.46
364.102	54179.22
364.171	54305.5
364.239	54730.27
364.307	55102.22
364.375	55644.08
364.443	55983.89
364.511	56261.7
364.579	56534.93
364.647	56867.85
364.715	57051.53
364.783	57437.26
364.851	57565.84
364.919	57905.65
364.987	57956.16
365.055	58419.95
365.123	58723.03
365.191	58700.07
365.259	58833.24
365.327	59000.84
365.395	59448.57
365.463	59724.09
365.531	59671.28
365.599	59834.3
365.667	59864.14
365.735	60201.66
365.802	60105.22
365.87	60190.18
365.938	60435.85
366.006	60823.88
366.074	60835.36
366.142	60777.96
366.209	60826.17
366.277	61191.24
366.345	61147.61
366.413	61285.37
366.48	61363.44
366.548	61358.85
366.616	61441.5
366.683	61505.79
366.751	61698.66
366.819	61645.85
366.886	61675.69
366.954	61459.87
367.022	61560.89
367.089	61368.03
367.157	61535.64
367.224	61682.58
367.292	61758.35
367.36	61739.98
367.427	61547.12
367.495	61664.21
367.562	61439.21
367.63	61526.45
367.697	61374.92
367.765	61485.13
367.832	61622.89
367.9	61340.48
367.967	61333.59
368.034	61331.29
368.102	61165.98
368.169	61400.17
368.237	61267.01
368.304	60993.78
368.371	60858.32
368.439	61046.59
368.506	60791.73
368.573	60775.66
368.641	60764.18
368.708	60644.79
368.775	60555.24
368.843	60419.78
368.91	60190.18
368.977	59804.45
369.044	60259.06
369.112	59914.66
369.179	60031.75
369.246	59705.72
369.313	59719.49
369.38	59556.48
369.448	59453.16
369.515	59391.17
369.582	59246.52
369.649	59005.44
369.716	59127.12
369.783	58918.19
369.85	58998.55
369.917	58741.39
369.984	58603.63
370.052	58658.74
370.119	58514.09
370.186	58603.63
370.253	58052.59
370.32	58121.47
370.387	58176.58
370.454	57907.94
370.521	57882.69
370.587	57850.54
370.654	57513.03
370.721	57604.87
370.788	57310.98
370.855	57310.98
370.922	57212.25
370.989	57173.22
371.056	57214.55
371.123	56658.91
371.189	56424.72
371.256	56190.53
371.323	55818.57
371.39	55361.67
371.457	55051.71
371.523	54828.99
371.59	54353.72
371.657	54020.8
371.724	53387.1
371.79	52760.29
371.857	51839.59
371.924	50827.05
371.991	49713.49
372.057	48707.83
372.124	47050.11
372.191	45807.97
372.257	44076.78
372.324	42366.25
372.39	40416.94
372.457	38922.24
372.524	37200.23
372.59	35283.07
372.657	32773.53
372.723	30771.41
372.79	29191.75
372.856	27274.58
372.923	25467.62
372.989	23867.31
373.056	22227.96
373.122	20391.15
373.189	18983.69
373.255	17748.44
373.322	16554.52
373.388	15156.25
373.454	14104.67
373.521	12922.23
373.587	12061.23
373.654	10890.26
373.72	9962.67
373.786	9404.74
373.853	8853.7
373.919	8148.82
373.985	7508.24
374.052	6879.13
374.118	6332.68
374.184	5914.81
374.25	5366.06
374.317	5182.38
374.383	4753.03
374.449	4521.13
374.515	4156.06
374.581	3878.25
374.648	3689.97
374.714	3396.09
374.78	3028.72
374.846	3042.5
374.912	2776.16
374.978	2576.41
375.044	2369.77
375.11	2351.4
375.177	2284.82
375.243	2124.1
375.309	2082.77
375.375	1795.77
375.441	1850.87
375.507	1754.44
375.573	1678.67
375.639	1529.43
375.705	1573.05
375.771	1403.15
375.837	1373.3
375.903	1304.42
375.968	1228.65
376.034	1228.65
376.1	1171.25
376.166	1150.59
376.232	1088.6
376.298	1097.78
376.364	1106.96
376.43	1003.64
376.495	976.09
376.561	966.91
376.627	838.33
376.693	893.43
376.759	934.76
376.824	792.41
376.89	852.11
376.956	824.55
377.022	819.96
377.087	808.48
377.153	764.86
377.219	753.38
377.284	799.3
377.35	700.57
377.416	735.01
377.481	691.39
377.547	739.6
377.613	748.79
377.678	718.94
377.744	661.54
377.809	686.79
377.875	650.06
377.94	640.87
378.006	594.95
378.071	560.51
378.137	679.91
378.202	611.03
378.268	679.91
378.333	592.66
378.399	633.99
378.464	606.43
378.53	613.32
378.595	620.21
378.661	599.55
378.726	624.8
378.791	578.88
378.857	578.88
378.922	627.1
378.987	503.11
379.053	611.03
379.118	551.33
379.183	574.29
379.249	571.99
379.314	537.55
379.379	549.03
379.444	532.96
379.51	521.48
379.575	512.3
379.64	581.18
379.705	532.96
379.771	537.55
379.836	500.82
379.901	496.23
379.966	535.26
380.031	454.9
380.096	507.71
380.161	475.56
380.227	464.08
380.292	544.44
380.357	544.44
380.422	503.11
380.487	519.19
380.552	526.07
380.617	470.97
380.682	493.93
380.747	454.9
380.812	507.71
380.877	544.44
380.942	498.52
381.007	468.67
381.072	516.89
381.137	493.93
381.202	516.89
381.266	457.19
381.331	459.49
381.396	493.93
381.461	505.41
381.526	425.05
381.591	464.08
381.656	514.59
381.72	459.49
381.785	491.63
381.85	526.07
381.915	429.64
381.979	496.23
382.044	454.9
382.109	489.34
382.174	457.19
382.238	441.12
382.303	491.63
382.368	475.56
382.432	526.07
382.497	431.94
382.562	464.08
382.626	443.42
382.691	519.19
382.756	457.19
382.82	454.9
382.885	466.38
382.949	461.78
383.014	461.78
383.078	505.41
383.143	388.31
383.208	431.94
383.272	498.52
383.337	512.3
383.401	445.71
383.465	484.75
383.53	473.26
383.594	512.3
383.659	445.71
383.723	530.67
383.788	431.94
383.852	480.15
383.916	482.45
383.981	470.97
384.045	413.57
384.109	427.34
384.174	443.42
384.238	448.01
384.302	406.68
384.367	519.19
384.431	438.82
384.495	521.48
384.56	496.23
384.624	461.78
384.688	406.68
384.752	537.55
384.816	482.45
384.881	436.53
384.945	507.71
385.009	461.78
385.073	461.78
385.137	516.89
385.201	503.11
385.265	429.64
385.33	452.6
385.394	406.68
385.458	415.86
385.522	441.12
385.586	459.49
385.65	475.56
385.714	420.46
385.778	429.64
385.842	404.38
385.906	418.16
385.97	427.34
386.034	399.79
386.098	464.08
386.162	491.63
386.226	466.38
386.29	448.01
386.354	475.56
386.417	438.82
386.481	448.01
386.545	431.94
386.609	454.9
386.673	482.45
386.737	386.02
386.8	436.53
386.864	390.61
386.928	415.86
386.992	461.78
387.056	464.08
387.119	420.46
387.183	429.64
387.247	448.01
387.31	379.13
387.374	425.05
387.438	390.61
387.502	422.75
387.565	441.12
387.629	333.21
387.692	489.34
387.756	379.13
387.82	367.65
387.883	450.3
387.947	356.17
388.01	443.42
388.074	397.5
388.138	450.3
388.201	431.94
388.265	386.02
388.328	415.86
388.392	365.35
388.455	422.75
388.519	436.53
388.582	390.61
388.645	397.5
388.709	454.9
388.772	399.79
388.836	406.68
388.899	379.13
388.962	415.86
389.026	448.01
389.089	434.23
389.153	388.31
389.216	489.34
389.279	434.23
389.343	381.42
389.406	434.23
389.469	443.42
389.532	466.38
389.596	452.6
389.659	388.31
389.722	379.13
389.785	392.9
389.848	450.3
389.912	383.72
389.975	415.86
390.038	470.97
390.101	450.3
390.164	386.02
390.227	349.28
390.291	475.56
390.354	383.72
390.417	454.9
390.48	404.38
390.543	422.75
390.606	436.53
390.669	441.12
390.732	475.56
390.795	468.67
390.858	386.02
390.921	470.97
390.984	431.94
391.047	413.57
391.11	381.42
391.173	408.98
391.236	397.5
391.299	500.82
391.362	399.79
391.424	443.42
391.487	383.72
391.55	425.05
391.613	369.94
391.676	429.64
391.739	402.09
391.802	335.5
391.864	346.98
391.927	429.64
391.99	422.75
392.053	349.28
392.115	402.09
392.178	408.98
392.241	450.3
392.304	427.34
392.366	441.12
392.429	450.3
392.492	374.54
392.554	427.34
392.617	415.86
392.68	441.12
392.742	349.28
392.805	404.38
392.867	369.94
392.93	429.64
392.992	422.75
393.055	459.49
393.118	390.61
393.18	356.17
393.243	395.2
393.305	395.2
393.368	445.71
393.43	420.46
393.493	367.65
393.555	427.34
393.618	505.41
393.68	397.5
393.742	399.79
393.805	386.02
393.867	379.13
393.93	418.16
393.992	369.94
394.054	392.9
394.117	418.16
394.179	406.68
394.241	415.86
394.304	383.72
394.366	422.75
394.428	388.31
394.49	434.23
394.553	346.98
394.615	358.46
394.677	408.98
394.739	406.68
394.802	438.82
394.864	395.2
394.926	358.46
394.988	392.9
395.05	406.68
395.112	450.3
395.174	395.2
395.237	413.57
395.299	395.2
395.361	360.76
395.423	372.24
395.485	395.2
395.547	386.02
395.609	344.69
395.671	443.42
395.733	333.21
395.795	422.75
395.857	436.53
395.919	392.9
395.981	425.05
396.043	383.72
396.105	381.42
396.167	346.98
396.229	326.32
396.291	369.94
396.352	349.28
396.414	333.21
396.476	413.57
396.538	365.35
396.6	415.86
396.662	367.65
396.724	443.42
396.785	390.61
396.847	404.38
396.909	434.23
396.971	459.49
397.032	379.13
397.094	369.94
397.156	372.24
397.218	420.46
397.279	418.16
397.341	443.42
397.403	415.86
397.464	397.5
397.526	390.61
397.588	379.13
397.649	392.9
397.711	448.01
397.772	392.9
397.834	415.86
397.896	365.35
397.957	376.83
398.019	404.38
398.08	372.24
398.142	503.11
398.203	386.02
398.265	404.38
398.326	353.87
398.388	369.94
398.449	395.2
398.511	427.34
398.572	372.24
398.633	402.09
398.695	383.72
398.756	363.06
398.818	420.46
398.879	374.54
398.94	441.12
399.002	353.87
399.063	388.31
399.124	399.79
399.186	418.16
399.247	422.75
399.308	438.82
399.369	388.31
399.431	415.86
399.492	392.9
399.553	303.36
399.614	418.16
399.676	406.68
399.737	452.6
399.798	386.02
399.859	404.38
399.92	438.82
399.981	383.72
400.042	397.5
400.104	367.65
400.165	395.2
400.226	459.49
400.287	344.69
400.348	342.39
400.409	390.61
400.47	445.71
400.531	450.3
400.592	415.86
400.653	360.76
400.714	429.64
400.775	452.6
400.836	459.49
400.897	425.05
400.958	392.9
401.019	390.61
401.08	342.39
401.141	418.16
401.201	425.05
401.262	363.06
401.323	448.01
401.384	369.94
401.445	402.09
401.506	429.64
401.567	388.31
401.627	298.77
401.688	360.76
401.749	399.79
401.81	413.57
401.87	434.23
401.931	457.19
401.992	346.98
402.053	392.9
402.113	450.3
402.174	397.5
402.235	464.08
402.295	418.16
402.356	372.24
402.417	330.91
402.477	388.31
402.538	402.09
402.598	402.09
402.659	379.13
402.719	340.1
402.78	388.31
402.841	376.83
402.901	431.94
402.962	443.42
403.022	390.61
403.083	420.46
403.143	372.24
403.204	376.83
403.264	406.68
403.324	429.64
403.385	427.34
403.445	420.46
403.506	363.06
403.566	351.58
403.627	427.34
403.687	420.46
403.747	399.79
403.808	420.46
403.868	369.94
403.928	374.54
403.989	404.38
404.049	420.46
404.109	436.53
404.169	369.94
404.23	312.54
404.29	330.91
404.35	427.34
404.41	420.46
404.47	420.46
404.531	408.98
404.591	390.61
404.651	388.31
404.711	427.34
404.771	427.34
404.831	397.5
404.892	457.19
404.952	360.76
405.012	388.31
405.072	356.17
405.132	296.47
405.192	390.61
405.252	397.5
405.312	356.17
405.372	381.42
405.432	369.94
405.492	351.58
405.552	356.17
405.612	390.61
405.672	411.27
405.732	411.27
405.792	402.09
405.852	376.83
405.912	379.13
405.971	399.79
406.031	376.83
406.091	404.38
406.151	386.02
406.211	333.21
406.271	337.8
406.33	395.2
406.39	376.83
406.45	404.38
406.51	420.46
406.57	390.61
406.629	418.16
406.689	404.38
406.749	367.65
406.808	418.16
406.868	379.13
406.928	402.09
406.988	326.32
407.047	422.75
407.107	314.84
407.166	374.54
407.226	418.16
407.286	369.94
407.345	376.83
407.405	314.84
407.464	363.06
407.524	351.58
407.584	392.9
407.643	358.46
407.703	324.02
407.762	383.72
407.822	402.09
407.881	418.16
407.941	436.53
408	346.98
408.059	418.16
408.119	376.83
408.178	452.6
408.238	420.46
408.297	367.65
408.356	360.76
408.416	372.24
408.475	480.15
408.535	436.53
408.594	376.83
408.653	374.54
408.712	346.98
408.772	356.17
408.831	406.68
408.89	418.16
408.95	381.42
409.009	349.28
409.068	376.83
409.127	438.82
409.186	411.27
409.246	415.86
409.305	312.54
409.364	376.83
409.423	418.16
409.482	353.87
409.541	425.05
409.6	340.1
409.66	404.38
409.719	388.31
409.778	369.94
409.837	457.19
409.896	408.98
409.955	381.42
410.014	379.13
410.073	402.09
410.132	372.24
410.191	360.76
410.25	379.13
410.309	415.86
410.368	381.42
410.427	351.58
410.486	420.46
410.545	415.86
410.603	328.62
410.662	392.9
410.721	402.09
410.78	408.98
410.839	434.23
410.898	390.61
410.957	372.24
411.015	431.94
411.074	379.13
411.133	356.17
411.192	374.54
411.25	383.72
411.309	418.16
411.368	406.68
411.427	340.1
411.485	422.75
411.544	436.53
411.603	356.17
411.661	420.46
411.72	431.94
411.779	372.24
411.837	383.72
411.896	326.32
411.955	431.94
412.013	390.61
412.072	406.68
412.13	353.87
412.189	443.42
412.247	358.46
412.306	406.68
412.364	392.9
412.423	415.86
412.481	402.09
412.54	363.06
412.598	351.58
412.657	399.79
412.715	392.9
412.774	418.16
412.832	392.9
412.891	420.46
412.949	420.46
413.007	454.9
413.066	415.86
413.124	386.02
413.182	363.06
413.241	353.87
413.299	379.13
413.357	383.72
413.416	381.42
413.474	411.27
413.532	397.5
413.59	328.62
413.649	408.98
413.707	351.58
413.765	427.34
413.823	461.78
413.881	340.1
413.94	434.23
413.998	342.39
414.056	448.01
414.114	415.86
414.172	450.3
414.23	388.31
414.288	379.13
414.347	381.42
414.405	365.35
414.463	395.2
414.521	402.09
414.579	397.5
414.637	342.39
414.695	349.28
414.753	390.61
414.811	344.69
414.869	434.23
414.927	360.76
414.985	376.83
415.043	434.23
415.101	374.54
415.158	406.68
415.216	328.62
415.274	349.28
415.332	328.62
415.39	312.54
415.448	415.86
415.506	408.98
415.563	404.38
415.621	372.24
415.679	399.79
415.737	379.13
415.795	351.58
415.852	372.24
415.91	360.76
415.968	346.98
416.026	337.8
416.083	319.43
416.141	406.68
416.199	346.98
416.256	418.16
416.314	367.65
416.372	335.5
416.429	369.94
416.487	418.16
416.544	374.54
416.602	390.61
416.66	392.9
416.717	388.31
416.775	379.13
416.832	450.3
416.89	365.35
416.947	431.94
417.005	379.13
417.062	365.35
417.12	395.2
417.177	349.28
417.235	399.79
417.292	314.84
417.35	372.24
417.407	372.24
417.464	358.46
417.522	388.31
417.579	360.76
417.637	434.23
417.694	356.17
417.751	307.95
417.809	379.13
417.866	356.17
417.923	379.13
417.981	344.69
418.038	392.9
418.095	365.35
418.152	390.61
418.21	351.58
418.267	314.84
418.324	358.46
418.381	413.57
418.438	388.31
418.496	379.13
418.553	351.58
418.61	390.61
418.667	404.38
418.724	388.31
418.781	365.35
418.838	346.98
418.895	342.39
418.952	381.42
419.01	392.9
419.067	413.57
419.124	441.12
419.181	365.35
419.238	337.8
419.295	367.65
419.352	408.98
419.409	404.38
419.466	454.9
419.523	390.61
419.579	381.42
419.636	379.13
419.693	404.38
419.75	397.5
419.807	397.5
419.864	337.8
419.921	379.13
419.978	303.36
420.034	388.31
420.091	374.54
420.148	349.28
420.205	351.58
420.262	386.02
420.318	415.86
420.375	390.61
420.432	395.2
420.489	356.17
420.545	404.38
420.602	369.94
420.659	383.72
420.715	418.16
420.772	404.38
420.829	390.61
420.885	328.62
420.942	390.61
420.999	337.8
421.055	376.83
421.112	374.54
421.168	376.83
421.225	379.13
421.282	381.42
421.338	390.61
421.395	376.83
421.451	386.02
421.508	466.38
421.564	379.13
421.621	392.9
421.677	386.02
421.734	399.79
421.79	363.06
421.846	388.31
421.903	441.12
421.959	399.79
422.016	379.13
422.072	369.94
422.128	369.94
422.185	418.16
422.241	369.94
422.297	346.98
422.354	369.94
422.41	374.54
422.466	351.58
422.523	379.13
422.579	372.24
422.635	351.58
422.691	326.32
422.748	333.21
422.804	379.13
422.86	383.72
422.916	420.46
422.972	402.09
423.029	415.86
423.085	369.94
423.141	408.98
423.197	431.94
423.253	367.65
423.309	388.31
423.365	328.62
423.421	402.09
423.477	358.46
423.533	372.24
423.589	402.09
423.645	363.06
423.701	326.32
423.757	413.57
423.813	379.13
423.869	303.36
423.925	291.88
423.981	411.27
424.037	367.65
424.093	397.5
424.149	353.87
424.205	344.69
424.261	353.87
424.317	353.87
424.373	333.21
424.428	342.39
424.484	379.13
424.54	383.72
424.596	356.17
424.652	328.62
424.708	434.23
424.763	351.58
424.819	340.1
424.875	326.32
424.931	386.02
424.986	420.46
425.042	429.64
425.098	399.79
425.153	392.9
425.209	372.24
425.265	404.38
425.32	363.06
425.376	360.76
425.432	445.71
425.487	392.9
425.543	422.75
425.598	264.33
425.654	337.8
425.709	365.35
425.765	418.16
425.82	335.5
425.876	344.69
425.932	372.24
425.987	335.5
426.042	337.8
426.098	328.62
426.153	333.21
426.209	356.17
426.264	406.68
426.32	381.42
426.375	376.83
426.43	324.02
426.486	335.5
426.541	397.5
426.597	337.8
426.652	344.69
426.707	425.05
426.763	397.5
426.818	360.76
426.873	367.65
426.928	411.27
426.984	287.29
427.039	379.13
427.094	379.13
427.149	395.2
427.205	312.54
427.26	425.05
427.315	333.21
427.37	383.72
427.425	395.2
427.48	381.42
427.536	383.72
427.591	383.72
427.646	358.46
427.701	340.1
427.756	425.05
427.811	418.16
427.866	395.2
427.921	459.49
427.976	399.79
428.031	374.54
428.086	415.86
428.141	427.34
428.196	395.2
428.251	351.58
428.306	363.06
428.361	342.39
428.416	360.76
428.471	349.28
428.526	296.47
428.581	438.82
428.636	324.02
428.691	402.09
428.745	376.83
428.8	411.27
428.855	372.24
428.91	374.54
428.965	372.24
429.02	381.42
429.074	367.65
429.129	333.21
429.184	349.28
429.239	374.54
429.293	388.31
429.348	404.38
429.403	420.46
429.457	395.2
429.512	340.1
429.567	379.13
429.621	303.36
429.676	390.61
429.731	349.28
429.785	363.06
429.84	406.68
429.895	344.69
429.949	346.98
430.004	363.06
430.058	388.31
430.113	328.62
430.167	360.76
430.222	349.28
430.276	420.46
430.331	402.09
430.385	326.32
430.44	337.8
430.494	386.02
430.549	404.38
430.603	404.38
430.657	379.13
430.712	340.1
430.766	408.98
430.821	321.73
430.875	390.61
430.929	369.94
430.984	344.69
431.038	319.43
431.092	381.42
431.147	314.84
431.201	402.09
431.255	383.72
431.309	330.91
431.364	346.98
431.418	342.39
431.472	367.65
431.526	326.32
431.581	436.53
431.635	294.18
431.689	346.98
431.743	353.87
431.797	365.35
431.851	425.05
431.906	422.75
431.96	491.63
432.014	434.23
432.068	399.79
432.122	337.8
432.176	445.71
432.23	379.13
432.284	383.72
432.338	402.09
432.392	358.46
432.446	397.5
432.5	406.68
432.554	358.46
432.608	353.87
432.662	386.02
432.716	351.58
432.77	365.35
432.824	340.1
432.878	324.02
432.931	422.75
432.985	365.35
433.039	372.24
433.093	381.42
433.147	351.58
433.201	321.73
433.254	344.69
433.308	351.58
433.362	374.54
433.416	411.27
433.47	321.73
433.523	342.39
433.577	388.31
433.631	353.87
433.684	353.87
433.738	386.02
433.792	420.46
433.846	360.76
433.899	388.31
433.953	369.94
434.006	312.54
434.06	386.02
434.114	411.27
434.167	411.27
434.221	411.27
