Data from FLMS155811_12-25-11-059.txt Node
Date: Mon Mar 23 12:25:11 MDT 2020
User: ECEn Student
Spectrometer: FLMS15581
Trigger mode: 0
Integration Time (sec): 1.400000E-1
Scans to average: 1
Electric dark correction enabled: true
Nonlinearity correction enabled: false
Boxcar width: 0
XAxis mode: Wavelengths
Number of Pixels in Spectrum: 2048
>>>>>Begin Spectral Data<<<<<
298.026	-15.5
298.106	-15.5
298.185	-15.5
298.265	-109.63
298.344	-40.75
298.424	-109.63
298.503	-84.38
298.583	-49.94
298.662	-75.19
298.741	-40.75
298.821	-98.15
298.9	-38.46
298.98	-13.2
299.059	25.83
299.138	32.72
299.217	-45.35
299.297	108.49
299.376	110.78
299.455	44.2
299.535	87.82
299.614	145.22
299.693	181.96
299.772	140.63
299.852	99.3
299.931	179.66
300.01	319.72
300.089	218.69
300.168	220.99
300.247	287.58
300.327	326.61
300.406	260.02
300.485	319.72
300.564	305.94
300.643	262.32
300.722	381.71
300.801	367.94
300.88	365.64
300.959	377.12
301.038	335.79
301.117	367.94
301.196	406.97
301.275	402.38
301.354	388.6
301.433	363.34
301.512	416.15
301.591	427.63
301.67	384.01
301.749	386.3
301.828	455.18
301.907	395.49
301.985	367.94
302.064	365.64
302.143	411.56
302.222	413.86
302.301	397.78
302.38	406.97
302.458	420.74
302.537	365.64
302.616	374.82
302.695	358.75
302.773	395.49
302.852	379.42
302.931	411.56
303.01	319.72
303.088	374.82
303.167	342.68
303.246	322.02
303.324	361.05
303.403	420.74
303.481	338.09
303.56	317.42
303.639	315.13
303.717	372.53
303.796	328.9
303.874	324.31
303.953	372.53
304.032	404.67
304.11	349.57
304.189	333.5
304.267	331.2
304.346	312.83
304.424	324.31
304.502	361.05
304.581	404.67
304.659	342.68
304.738	315.13
304.816	331.2
304.895	340.38
304.973	406.97
305.051	340.38
305.13	413.86
305.208	315.13
305.286	361.05
305.365	358.75
305.443	420.74
305.521	384.01
305.6	354.16
305.678	372.53
305.756	278.39
305.834	356.46
305.913	361.05
305.991	344.98
306.069	409.26
306.147	354.16
306.225	384.01
306.304	354.16
306.382	418.45
306.46	317.42
306.538	363.34
306.616	402.38
306.694	363.34
306.772	326.61
306.85	372.53
306.929	381.71
307.007	356.46
307.085	372.53
307.163	358.75
307.241	386.3
307.319	395.49
307.397	384.01
307.475	340.38
307.553	393.19
307.631	361.05
307.709	397.78
307.786	402.38
307.864	351.86
307.942	356.46
308.02	326.61
308.098	363.34
308.176	384.01
308.254	335.79
308.332	347.27
308.409	446
308.487	326.61
308.565	429.93
308.643	372.53
308.721	328.9
308.798	326.61
308.876	423.04
308.954	361.05
309.032	367.94
309.109	370.23
309.187	317.42
309.265	361.05
309.342	367.94
309.42	393.19
309.498	335.79
309.575	400.08
309.653	358.75
309.731	356.46
309.808	315.13
309.886	381.71
309.963	390.9
310.041	393.19
310.119	374.82
310.196	363.34
310.274	390.9
310.351	381.71
310.429	301.35
310.506	402.38
310.584	404.67
310.661	432.22
310.738	395.49
310.816	365.64
310.893	333.5
310.971	384.01
311.048	347.27
311.126	356.46
311.203	397.78
311.28	358.75
311.358	315.13
311.435	356.46
311.512	333.5
311.59	367.94
311.667	420.74
311.744	377.12
311.821	356.46
311.899	354.16
311.976	374.82
312.053	384.01
312.13	448.3
312.208	439.11
312.285	358.75
312.362	379.42
312.439	342.68
312.516	379.42
312.593	319.72
312.671	397.78
312.748	381.71
312.825	358.75
312.902	423.04
312.979	351.86
313.056	395.49
313.133	367.94
313.21	356.46
313.287	384.01
313.364	427.63
313.441	420.74
313.518	416.15
313.595	347.27
313.672	361.05
313.749	372.53
313.826	384.01
313.903	446
313.98	351.86
314.057	404.67
314.134	377.12
314.211	356.46
314.287	349.57
314.364	354.16
314.441	425.34
314.518	388.6
314.595	365.64
314.672	416.15
314.748	390.9
314.825	427.63
314.902	423.04
314.979	425.34
315.055	358.75
315.132	409.26
315.209	423.04
315.286	393.19
315.362	478.14
315.439	361.05
315.516	335.79
315.592	370.23
315.669	324.31
315.746	342.68
315.822	395.49
315.899	358.75
315.975	390.9
316.052	395.49
316.128	395.49
316.205	402.38
316.282	365.64
316.358	427.63
316.435	480.44
316.511	384.01
316.588	310.54
316.664	397.78
316.741	404.67
316.817	459.78
316.893	338.09
316.97	361.05
317.046	404.67
317.123	411.56
317.199	356.46
317.275	356.46
317.352	344.98
317.428	370.23
317.504	356.46
317.581	338.09
317.657	388.6
317.733	400.08
317.81	381.71
317.886	448.3
317.962	425.34
318.038	450.59
318.115	386.3
318.191	436.82
318.267	402.38
318.343	427.63
318.419	406.97
318.496	416.15
318.572	377.12
318.648	439.11
318.724	381.71
318.8	381.71
318.876	395.49
318.952	388.6
319.028	384.01
319.105	367.94
319.181	335.79
319.257	439.11
319.333	372.53
319.409	420.74
319.485	347.27
319.561	413.86
319.637	361.05
319.713	386.3
319.789	370.23
319.865	443.7
319.94	406.97
320.016	377.12
320.092	370.23
320.168	386.3
320.244	386.3
320.32	432.22
320.396	370.23
320.472	395.49
320.547	443.7
320.623	324.31
320.699	411.56
320.775	400.08
320.851	425.34
320.926	390.9
321.002	340.38
321.078	384.01
321.154	409.26
321.229	423.04
321.305	413.86
321.381	351.86
321.456	384.01
321.532	418.45
321.608	365.64
321.683	365.64
321.759	427.63
321.835	347.27
321.91	409.26
321.986	402.38
322.061	374.82
322.137	363.34
322.212	365.64
322.288	436.82
322.364	397.78
322.439	397.78
322.515	400.08
322.59	365.64
322.666	404.67
322.741	367.94
322.816	436.82
322.892	436.82
322.967	443.7
323.043	361.05
323.118	443.7
323.193	395.49
323.269	404.67
323.344	427.63
323.42	436.82
323.495	381.71
323.57	393.19
323.646	384.01
323.721	381.71
323.796	335.79
323.871	354.16
323.947	365.64
324.022	425.34
324.097	459.78
324.172	308.24
324.248	404.67
324.323	439.11
324.398	367.94
324.473	374.82
324.548	377.12
324.623	374.82
324.699	443.7
324.774	361.05
324.849	439.11
324.924	365.64
324.999	425.34
325.074	377.12
325.149	377.12
325.224	402.38
325.299	429.93
325.374	427.63
325.449	448.3
325.524	384.01
325.599	411.56
325.674	434.52
325.749	404.67
325.824	429.93
325.899	384.01
325.974	388.6
326.049	377.12
326.124	379.42
326.199	425.34
326.273	434.52
326.348	404.67
326.423	457.48
326.498	464.37
326.573	377.12
326.648	455.18
326.722	397.78
326.797	397.78
326.872	441.41
326.947	425.34
327.021	395.49
327.096	427.63
327.171	473.55
327.245	393.19
327.32	395.49
327.395	351.86
327.47	381.71
327.544	349.57
327.619	402.38
327.693	425.34
327.768	404.67
327.843	381.71
327.917	411.56
327.992	420.74
328.066	395.49
328.141	416.15
328.215	372.53
328.29	411.56
328.364	370.23
328.439	420.74
328.513	367.94
328.588	446
328.662	457.48
328.737	312.83
328.811	416.15
328.886	443.7
328.96	377.12
329.035	361.05
329.109	411.56
329.183	409.26
329.258	413.86
329.332	397.78
329.406	427.63
329.481	365.64
329.555	468.96
329.629	462.07
329.704	358.75
329.778	423.04
329.852	411.56
329.926	370.23
330.001	436.82
330.075	420.74
330.149	425.34
330.223	379.42
330.297	464.37
330.372	409.26
330.446	397.78
330.52	487.33
330.594	400.08
330.668	400.08
330.742	413.86
330.816	377.12
330.89	420.74
330.964	413.86
331.038	464.37
331.113	370.23
331.187	420.74
331.261	434.52
331.335	370.23
331.409	363.34
331.483	432.22
331.557	420.74
331.63	441.41
331.704	372.53
331.778	409.26
331.852	324.31
331.926	402.38
332	443.7
332.074	464.37
332.148	413.86
332.222	427.63
332.295	425.34
332.369	446
332.443	413.86
332.517	439.11
332.591	418.45
332.665	413.86
332.738	395.49
332.812	361.05
332.886	397.78
332.959	418.45
333.033	356.46
333.107	411.56
333.181	367.94
333.254	432.22
333.328	450.59
333.402	429.93
333.475	439.11
333.549	429.93
333.622	434.52
333.696	406.97
333.77	388.6
333.843	452.89
333.917	379.42
333.99	404.67
334.064	303.65
334.137	367.94
334.211	400.08
334.284	326.61
334.358	425.34
334.431	425.34
334.505	420.74
334.578	423.04
334.652	358.75
334.725	413.86
334.799	413.86
334.872	416.15
334.945	434.52
335.019	434.52
335.092	416.15
335.165	406.97
335.239	413.86
335.312	386.3
335.385	450.59
335.459	455.18
335.532	427.63
335.605	384.01
335.678	420.74
335.752	448.3
335.825	432.22
335.898	441.41
335.971	448.3
336.045	462.07
336.118	429.93
336.191	439.11
336.264	429.93
336.337	416.15
336.41	418.45
336.483	429.93
336.557	402.38
336.63	402.38
336.703	418.45
336.776	427.63
336.849	475.85
336.922	439.11
336.995	384.01
337.068	340.38
337.141	423.04
337.214	342.68
337.287	411.56
337.36	439.11
337.433	388.6
337.506	388.6
337.579	372.53
337.652	411.56
337.725	471.26
337.797	390.9
337.87	441.41
337.943	377.12
338.016	402.38
338.089	482.74
338.162	423.04
338.235	466.66
338.307	384.01
338.38	448.3
338.453	473.55
338.526	420.74
338.598	448.3
338.671	452.89
338.744	489.62
338.817	487.33
338.889	406.97
338.962	416.15
339.035	400.08
339.107	423.04
339.18	448.3
339.253	413.86
339.325	427.63
339.398	473.55
339.47	452.89
339.543	393.19
339.616	384.01
339.688	404.67
339.761	409.26
339.833	418.45
339.906	457.48
339.978	416.15
340.051	439.11
340.123	354.16
340.196	409.26
340.268	434.52
340.341	441.41
340.413	443.7
340.485	381.71
340.558	446
340.63	478.14
340.703	402.38
340.775	386.3
340.847	404.67
340.92	404.67
340.992	448.3
341.064	475.85
341.137	374.82
341.209	420.74
341.281	420.74
341.354	393.19
341.426	448.3
341.498	462.07
341.57	471.26
341.643	439.11
341.715	393.19
341.787	434.52
341.859	386.3
341.931	432.22
342.003	416.15
342.076	397.78
342.148	468.96
342.22	374.82
342.292	448.3
342.364	386.3
342.436	409.26
342.508	434.52
342.58	434.52
342.652	507.99
342.724	452.89
342.796	372.53
342.868	455.18
342.94	446
343.012	464.37
343.084	386.3
343.156	423.04
343.228	482.74
343.3	450.59
343.372	390.9
343.444	471.26
343.516	480.44
343.588	464.37
343.66	420.74
343.731	464.37
343.803	441.41
343.875	432.22
343.947	400.08
344.019	402.38
344.09	395.49
344.162	466.66
344.234	471.26
344.306	427.63
344.377	452.89
344.449	462.07
344.521	480.44
344.593	455.18
344.664	478.14
344.736	432.22
344.808	427.63
344.879	418.45
344.951	441.41
345.023	489.62
345.094	466.66
345.166	464.37
345.237	450.59
345.309	471.26
345.38	459.78
345.452	425.34
345.524	381.71
345.595	471.26
345.667	427.63
345.738	448.3
345.81	450.59
345.881	450.59
345.953	450.59
346.024	464.37
346.095	498.81
346.167	462.07
346.238	411.56
346.31	466.66
346.381	473.55
346.452	432.22
346.524	473.55
346.595	489.62
346.666	457.48
346.738	432.22
346.809	420.74
346.88	459.78
346.952	459.78
347.023	485.03
347.094	517.18
347.165	439.11
347.237	526.36
347.308	475.85
347.379	402.38
347.45	487.33
347.521	452.89
347.593	459.78
347.664	457.48
347.735	485.03
347.806	429.93
347.877	459.78
347.948	507.99
348.019	462.07
348.09	540.14
348.161	535.54
348.233	471.26
348.304	478.14
348.375	432.22
348.446	526.36
348.517	427.63
348.588	491.92
348.659	429.93
348.73	462.07
348.801	487.33
348.871	459.78
348.942	528.66
349.013	420.74
349.084	487.33
349.155	452.89
349.226	489.62
349.297	487.33
349.368	452.89
349.439	480.44
349.509	487.33
349.58	496.51
349.651	480.44
349.722	519.47
349.793	427.63
349.863	526.36
349.934	485.03
350.005	418.45
350.076	487.33
350.146	496.51
350.217	533.25
350.288	535.54
350.358	487.33
350.429	471.26
350.5	507.99
350.57	544.73
350.641	583.76
350.711	517.18
350.782	505.7
350.853	556.21
350.923	565.39
350.994	510.29
351.064	436.82
351.135	576.87
351.205	501.1
351.276	496.51
351.346	514.88
351.417	574.58
351.487	604.42
351.558	648.05
351.628	604.42
351.699	535.54
351.769	505.7
351.84	521.77
351.91	657.23
351.98	631.98
352.051	620.5
352.121	586.06
352.191	627.38
352.262	648.05
352.332	687.08
352.402	629.68
352.473	710.04
352.543	753.67
352.613	767.44
352.683	687.08
352.754	785.81
352.824	808.77
352.894	838.62
352.964	831.73
353.035	801.88
353.105	909.79
353.175	907.5
353.245	891.43
353.315	955.71
353.385	1015.41
353.455	958.01
353.526	1095.77
353.596	1146.28
353.666	1072.81
353.736	1222.05
353.806	1189.91
353.876	1245.01
353.946	1215.16
354.016	1380.48
354.086	1389.66
354.156	1492.98
354.226	1488.39
354.296	1589.41
354.366	1626.15
354.436	1653.7
354.506	1759.32
354.576	1770.8
354.645	1945.29
354.715	1972.85
354.785	2092.24
354.855	2080.76
354.925	2092.24
354.995	2211.63
355.065	2450.42
355.134	2459.6
355.204	2489.45
355.274	2588.18
355.344	2725.94
355.414	2845.33
355.483	2854.51
355.553	2950.95
355.623	3061.15
355.693	3254.02
355.762	3442.29
355.832	3469.84
355.902	3582.35
355.971	3770.62
356.041	3830.32
356.111	3869.35
356.18	4236.71
356.25	4268.86
356.319	4422.69
356.389	4581.11
356.459	4762.5
356.528	4936.99
356.598	5168.89
356.667	5166.6
356.737	5393.9
356.806	5570.69
356.876	5882.95
356.945	6045.97
357.015	6103.37
357.084	6291.64
357.154	6484.5
357.223	6796.76
357.292	7127.39
357.362	7219.23
357.431	7474.09
357.501	7593.48
357.57	8038.9
357.639	8116.97
357.709	8406.26
357.778	8571.58
357.847	8782.81
357.917	9157.06
357.986	9393.55
358.055	9749.43
358.124	9960.66
358.194	10309.66
358.263	10610.43
358.332	10982.39
358.401	11172.96
358.471	11586.24
358.54	11898.5
358.609	12279.63
358.678	12461.02
358.747	12784.76
358.816	13119.97
358.886	13377.13
358.955	13778.93
359.024	14311.6
359.093	14481.51
359.162	15158.83
359.231	15181.79
359.3	15608.85
359.369	16063.46
359.438	16400.97
359.507	16623.68
359.576	17057.63
359.645	17679.85
359.714	18017.36
359.783	18563.81
359.852	18660.24
359.921	19126.33
359.99	19656.71
360.059	20340.92
360.128	20021.78
360.197	21121.57
360.266	21592.25
360.334	22023.9
360.403	22287.94
360.472	22838.98
360.541	23633.4
360.61	23941.07
360.679	24790.59
360.747	25190.09
360.816	25676.85
360.885	26643.47
360.954	26572.29
361.022	27616.98
361.091	28027.96
361.16	28427.47
361.228	28822.38
361.297	29614.5
361.366	30457.14
361.434	31233.19
361.503	31680.91
361.572	32378.9
361.64	33099.85
361.709	33458.02
361.778	34185.86
361.846	34711.65
361.915	35326.98
361.983	36041.04
362.052	37230.37
362.12	36860.71
362.189	38132.7
362.257	38555.17
362.326	39873.08
362.394	39710.06
362.463	40952.2
362.531	41138.18
362.6	41872.9
362.668	42371.13
362.737	43108.15
362.805	43631.64
362.873	44354.89
362.942	44947.26
363.01	45677.39
363.079	46648.6
363.147	47328.22
363.215	47647.36
363.284	48338.46
363.352	48822.92
363.42	49383.15
363.488	50058.17
363.557	50776.82
363.625	51105.15
363.693	51281.95
363.761	52058
363.83	52657.26
363.898	52976.4
363.966	53336.88
364.034	53940.73
364.102	54250.69
364.171	54241.5
364.239	54838.47
364.307	55233.38
364.375	55779.83
364.443	55722.43
364.511	56002.54
364.579	56282.66
364.647	56801.55
364.715	57015.08
364.783	57194.17
364.851	57380.15
364.919	57809.5
364.987	57990.89
365.055	58119.46
365.123	58456.98
365.191	58794.49
365.259	58787.6
365.327	58847.3
365.395	59118.23
365.463	59515.44
365.531	59524.62
365.599	59749.63
365.667	59972.34
365.735	60208.83
365.802	60344.3
365.87	60339.7
365.938	60364.96
366.006	60672.63
366.074	60654.26
366.142	60844.83
366.209	60938.96
366.277	60810.39
366.345	61042.28
366.413	61267.29
366.48	61168.56
366.548	60918.3
366.616	61386.68
366.683	61607.1
366.751	61200.71
366.819	61542.81
366.886	61499.19
366.954	61549.7
367.022	61343.06
367.089	61581.85
367.157	61733.38
367.224	61570.37
367.292	61715.01
367.36	61565.77
367.427	61703.53
367.495	61692.05
367.562	61678.28
367.63	61462.45
367.697	61363.72
367.765	61483.12
367.832	61414.24
367.9	61145.6
367.967	61115.76
368.034	61138.72
368.102	61290.25
368.169	61154.79
368.237	60938.96
368.304	60950.44
368.371	60833.35
368.439	60840.23
368.506	60943.55
368.573	60821.87
368.641	60959.63
368.708	60612.93
368.775	60523.39
368.843	60346.59
368.91	60192.76
368.977	59963.16
369.044	60107.81
369.112	59993.01
369.179	59689.93
369.246	59639.42
369.313	59602.69
369.38	59327.16
369.448	59591.21
369.515	59407.52
369.582	59281.24
369.649	58739.39
369.716	59024.09
369.783	58911.59
369.85	58801.38
369.917	58496.01
369.984	58555.71
370.052	58362.84
370.119	58351.36
370.186	58406.46
370.253	58089.62
370.32	57977.11
370.387	58073.54
370.454	58075.84
370.521	57607.45
370.587	57729.14
370.654	57517.91
370.721	57469.69
370.788	57318.16
370.855	57042.63
370.922	56985.23
370.989	56902.58
371.056	56799.26
371.123	56663.79
371.189	56066.83
371.256	55901.52
371.323	55873.97
371.39	55453.8
371.457	55212.72
371.523	54404.52
371.59	53931.54
371.657	53476.93
371.724	53499.89
371.79	52604.45
371.857	51819.21
371.924	50999.54
371.991	49555.35
372.057	48391.27
372.124	46864.42
372.191	45668.2
372.257	43535.21
372.324	42635.17
372.39	40325.39
372.457	38079.89
372.524	36718.36
372.59	34849.41
372.657	33141.18
372.723	31040.33
372.79	29155.3
372.856	27288.65
372.923	25086.77
372.989	23635.7
373.056	22039.97
373.122	20412.1
373.189	19094.19
373.255	17826.79
373.322	16394.08
373.388	15142.76
373.454	14157.77
373.521	12855.93
373.587	11785.99
373.654	10881.36
373.72	10155.82
373.786	9368.29
373.853	8796.59
373.919	7921.81
373.985	7483.27
374.052	6831.2
374.118	6349.04
374.184	5779.63
374.25	5497.22
374.317	5127.56
374.383	4718.87
374.449	4376.77
374.515	4160.94
374.581	3853.28
374.648	3545.61
374.714	3327.49
374.78	3178.25
374.846	2932.58
374.912	2764.97
374.978	2601.95
375.044	2388.42
375.11	2331.02
375.177	2218.52
375.243	2165.71
375.309	2062.39
375.375	1954.48
375.441	1848.86
375.507	1768.5
375.573	1665.18
375.639	1616.96
375.705	1513.64
375.771	1419.51
375.837	1387.36
375.903	1355.22
375.968	1265.68
376.034	1137.1
376.1	1286.34
376.166	1192.2
376.232	1093.47
376.298	1063.63
376.364	1008.52
376.43	1026.89
376.495	1008.52
376.561	1003.93
376.627	884.54
376.693	948.83
376.759	935.05
376.824	925.87
376.89	790.4
376.956	896.02
377.022	836.32
377.087	687.08
377.153	705.45
377.219	765.15
377.284	785.81
377.35	668.71
377.416	714.63
377.481	691.67
377.547	716.93
377.613	675.6
377.678	682.49
377.744	618.2
377.809	804.18
377.875	654.94
377.94	666.42
378.006	661.82
378.071	606.72
378.137	643.46
378.202	551.62
378.268	606.72
378.333	696.26
378.399	631.98
378.464	544.73
378.53	627.38
378.595	631.98
378.661	659.53
378.726	595.24
378.791	519.47
378.857	524.06
378.922	572.28
378.987	645.75
379.053	604.42
379.118	611.31
379.183	549.32
379.249	565.39
379.314	501.1
379.379	544.73
379.444	524.06
379.51	475.85
379.575	551.62
379.64	519.47
379.705	602.13
379.771	535.54
379.836	526.36
379.901	485.03
379.966	533.25
380.031	574.58
380.096	459.78
380.161	496.51
380.227	512.58
380.292	535.54
380.357	496.51
380.422	480.44
380.487	526.36
380.552	526.36
380.617	505.7
380.682	475.85
380.747	491.92
380.812	496.51
380.877	505.7
380.942	494.22
381.007	485.03
381.072	496.51
381.137	439.11
381.202	549.32
381.266	526.36
381.331	503.4
381.396	466.66
381.461	462.07
381.526	535.54
381.591	491.92
381.656	512.58
381.72	521.77
381.785	455.18
381.85	496.51
381.915	510.29
381.979	485.03
382.044	530.95
382.109	487.33
382.174	434.52
382.238	464.37
382.303	462.07
382.368	512.58
382.432	489.62
382.497	436.82
382.562	436.82
382.626	455.18
382.691	457.48
382.756	473.55
382.82	501.1
382.885	427.63
382.949	413.86
383.014	521.77
383.078	468.96
383.143	386.3
383.208	446
383.272	480.44
383.337	521.77
383.401	485.03
383.465	553.91
383.53	404.67
383.594	514.88
383.659	475.85
383.723	475.85
383.788	533.25
383.852	425.34
383.916	471.26
383.981	374.82
384.045	462.07
384.109	475.85
384.174	501.1
384.238	491.92
384.302	448.3
384.367	459.78
384.431	448.3
384.495	468.96
384.56	446
384.624	393.19
384.688	429.93
384.752	498.81
384.816	393.19
384.881	491.92
384.945	480.44
385.009	462.07
385.073	413.86
385.137	480.44
385.201	418.45
385.265	478.14
385.33	459.78
385.394	498.81
385.458	455.18
385.522	413.86
385.586	466.66
385.65	462.07
385.714	418.45
385.778	441.41
385.842	420.74
385.906	443.7
385.97	432.22
386.034	446
386.098	489.62
386.162	425.34
386.226	482.74
386.29	448.3
386.354	409.26
386.417	386.3
386.481	487.33
386.545	446
386.609	434.52
386.673	436.82
386.737	457.48
386.8	443.7
386.864	459.78
386.928	501.1
386.992	386.3
387.056	425.34
387.119	413.86
387.183	425.34
387.247	395.49
387.31	397.78
387.374	344.98
387.438	448.3
387.502	473.55
387.565	457.48
387.629	473.55
387.692	468.96
387.756	452.89
387.82	395.49
387.883	425.34
387.947	455.18
388.01	512.58
388.074	468.96
388.138	420.74
388.201	418.45
388.265	459.78
388.328	411.56
388.392	402.38
388.455	411.56
388.519	487.33
388.582	466.66
388.645	448.3
388.709	466.66
388.772	452.89
388.836	379.42
388.899	443.7
388.962	420.74
389.026	448.3
389.089	386.3
389.153	404.67
389.216	413.86
389.279	393.19
389.343	406.97
389.406	443.7
389.469	448.3
389.532	439.11
389.596	411.56
389.659	400.08
389.722	418.45
389.785	374.82
389.848	471.26
389.912	425.34
389.975	409.26
390.038	372.53
390.101	452.89
390.164	377.12
390.227	413.86
390.291	441.41
390.354	423.04
390.417	404.67
390.48	393.19
390.543	379.42
390.606	425.34
390.669	434.52
390.732	411.56
390.795	411.56
390.858	418.45
390.921	441.41
390.984	395.49
391.047	402.38
391.11	393.19
391.173	446
391.236	416.15
391.299	406.97
391.362	439.11
391.424	425.34
391.487	418.45
391.55	423.04
391.613	423.04
391.676	429.93
391.739	510.29
391.802	427.63
391.864	406.97
391.927	411.56
391.99	466.66
392.053	386.3
392.115	478.14
392.178	514.88
392.241	406.97
392.304	489.62
392.366	406.97
392.429	365.64
392.492	462.07
392.554	423.04
392.617	478.14
392.68	386.3
392.742	384.01
392.805	446
392.867	397.78
392.93	452.89
392.992	429.93
393.055	393.19
393.118	413.86
393.18	441.41
393.243	459.78
393.305	494.22
393.368	466.66
393.43	384.01
393.493	379.42
393.555	416.15
393.618	429.93
393.68	429.93
393.742	374.82
393.805	413.86
393.867	436.82
393.93	365.64
393.992	379.42
394.054	466.66
394.117	434.52
394.179	404.67
394.241	374.82
394.304	404.67
394.366	475.85
394.428	413.86
394.49	393.19
394.553	416.15
394.615	379.42
394.677	452.89
394.739	416.15
394.802	406.97
394.864	432.22
394.926	386.3
394.988	418.45
395.05	450.59
395.112	367.94
395.174	388.6
395.237	429.93
395.299	400.08
395.361	439.11
395.423	402.38
395.485	441.41
395.547	420.74
395.609	381.71
395.671	347.27
395.733	462.07
395.795	434.52
395.857	397.78
395.919	377.12
395.981	402.38
396.043	395.49
396.105	400.08
396.167	363.34
396.229	384.01
396.291	374.82
396.352	416.15
396.414	381.71
396.476	409.26
396.538	416.15
396.6	342.68
396.662	377.12
396.724	423.04
396.785	464.37
396.847	404.67
396.909	427.63
396.971	420.74
397.032	406.97
397.094	423.04
397.156	452.89
397.218	432.22
397.279	466.66
397.341	386.3
397.403	466.66
397.464	377.12
397.526	420.74
397.588	434.52
397.649	384.01
397.711	388.6
397.772	457.48
397.834	393.19
397.896	381.71
397.957	452.89
398.019	367.94
398.08	356.46
398.142	397.78
398.203	436.82
398.265	404.67
398.326	439.11
398.388	420.74
398.449	386.3
398.511	367.94
398.572	384.01
398.633	370.23
398.695	365.64
398.756	434.52
398.818	406.97
398.879	452.89
398.94	386.3
399.002	397.78
399.063	423.04
399.124	377.12
399.186	436.82
399.247	397.78
399.308	386.3
399.369	388.6
399.431	420.74
399.492	427.63
399.553	358.75
399.614	379.42
399.676	358.75
399.737	411.56
399.798	427.63
399.859	452.89
399.92	390.9
399.981	402.38
400.042	388.6
400.104	395.49
400.165	381.71
400.226	377.12
400.287	439.11
400.348	464.37
400.409	374.82
400.47	400.08
400.531	416.15
400.592	411.56
400.653	372.53
400.714	416.15
400.775	340.38
400.836	358.75
400.897	402.38
400.958	386.3
401.019	404.67
401.08	388.6
401.141	379.42
401.201	402.38
401.262	439.11
401.323	429.93
401.384	372.53
401.445	441.41
401.506	365.64
401.567	448.3
401.627	342.68
401.688	390.9
401.749	406.97
401.81	393.19
401.87	462.07
401.931	409.26
401.992	363.34
402.053	436.82
402.113	462.07
402.174	377.12
402.235	423.04
402.295	418.45
402.356	372.53
402.417	441.41
402.477	347.27
402.538	379.42
402.598	459.78
402.659	349.57
402.719	402.38
402.78	370.23
402.841	400.08
402.901	402.38
402.962	393.19
403.022	356.46
403.083	395.49
403.143	404.67
403.204	471.26
403.264	370.23
403.324	429.93
403.385	425.34
403.445	443.7
403.506	404.67
403.566	413.86
403.627	406.97
403.687	404.67
403.747	464.37
403.808	347.27
403.868	361.05
403.928	409.26
403.989	397.78
404.049	377.12
404.109	374.82
404.169	377.12
404.23	372.53
404.29	395.49
404.35	411.56
404.41	397.78
404.47	406.97
404.531	386.3
404.591	356.46
404.651	425.34
404.711	427.63
404.771	335.79
404.831	370.23
404.892	356.46
404.952	390.9
405.012	390.9
405.072	395.49
405.132	450.59
405.192	411.56
405.252	464.37
405.312	413.86
405.372	365.64
405.432	420.74
405.492	365.64
405.552	432.22
405.612	370.23
405.672	406.97
405.732	406.97
405.792	365.64
405.852	406.97
405.912	377.12
405.971	409.26
406.031	395.49
406.091	347.27
406.151	446
406.211	402.38
406.271	427.63
406.33	361.05
406.39	361.05
406.45	459.78
406.51	402.38
406.57	395.49
406.629	390.9
406.689	400.08
406.749	393.19
406.808	388.6
406.868	379.42
406.928	358.75
406.988	367.94
407.047	365.64
407.107	423.04
407.166	418.45
407.226	420.74
407.286	310.54
407.345	393.19
407.405	416.15
407.464	464.37
407.524	397.78
407.584	374.82
407.643	361.05
407.703	358.75
407.762	367.94
407.822	367.94
407.881	402.38
407.941	358.75
408	420.74
408.059	370.23
408.119	361.05
408.178	342.68
408.238	361.05
408.297	420.74
408.356	367.94
408.416	335.79
408.475	404.67
408.535	409.26
408.594	296.76
408.653	374.82
408.712	404.67
408.772	374.82
408.831	404.67
408.89	413.86
408.95	351.86
409.009	374.82
409.068	370.23
409.127	402.38
409.186	351.86
409.246	308.24
409.305	370.23
409.364	349.57
409.423	402.38
409.482	413.86
409.541	344.98
409.6	367.94
409.66	393.19
409.719	452.89
409.778	452.89
409.837	386.3
409.896	315.13
409.955	333.5
410.014	349.57
410.073	404.67
410.132	388.6
410.191	354.16
410.25	386.3
410.309	416.15
410.368	356.46
410.427	423.04
410.486	358.75
410.545	397.78
410.603	322.02
410.662	402.38
410.721	347.27
410.78	402.38
410.839	377.12
410.898	379.42
410.957	406.97
411.015	462.07
411.074	319.72
411.133	342.68
411.192	418.45
411.25	390.9
411.309	363.34
411.368	457.48
411.427	427.63
411.485	358.75
411.544	354.16
411.603	418.45
411.661	347.27
411.72	427.63
411.779	411.56
411.837	413.86
411.896	317.42
411.955	425.34
412.013	432.22
412.072	315.13
412.13	406.97
412.189	377.12
412.247	367.94
412.306	384.01
412.364	367.94
412.423	400.08
412.481	351.86
412.54	384.01
412.598	361.05
412.657	448.3
412.715	344.98
412.774	404.67
412.832	374.82
412.891	381.71
412.949	397.78
413.007	381.71
413.066	429.93
413.124	342.68
413.182	427.63
413.241	404.67
413.299	390.9
413.357	361.05
413.416	363.34
413.474	400.08
413.532	439.11
413.59	423.04
413.649	335.79
413.707	377.12
413.765	386.3
413.823	315.13
413.881	305.94
413.94	386.3
413.998	429.93
414.056	402.38
414.114	381.71
414.172	354.16
414.23	365.64
414.288	328.9
414.347	374.82
414.405	390.9
414.463	363.34
414.521	370.23
414.579	416.15
414.637	379.42
414.695	312.83
414.753	372.53
414.811	386.3
414.869	358.75
414.927	400.08
414.985	370.23
415.043	390.9
415.101	388.6
415.158	347.27
415.216	381.71
415.274	340.38
415.332	367.94
415.39	349.57
415.448	328.9
415.506	409.26
415.563	365.64
415.621	402.38
415.679	393.19
415.737	384.01
415.795	377.12
415.852	361.05
415.91	434.52
415.968	338.09
416.026	425.34
416.083	338.09
416.141	436.82
416.199	446
416.256	411.56
416.314	377.12
416.372	370.23
416.429	413.86
416.487	409.26
416.544	374.82
416.602	324.31
416.66	349.57
416.717	388.6
416.775	367.94
416.832	397.78
416.89	372.53
416.947	393.19
417.005	409.26
417.062	379.42
417.12	386.3
417.177	377.12
417.235	416.15
417.292	418.45
417.35	423.04
417.407	374.82
417.464	388.6
417.522	372.53
417.579	331.2
417.637	397.78
417.694	434.52
417.751	404.67
417.809	322.02
417.866	292.17
417.923	349.57
417.981	331.2
418.038	347.27
418.095	411.56
418.152	397.78
418.21	351.86
418.267	370.23
418.324	406.97
418.381	315.13
418.438	404.67
418.496	381.71
418.553	395.49
418.61	400.08
418.667	331.2
418.724	452.89
418.781	358.75
418.838	434.52
418.895	372.53
418.952	333.5
419.01	381.71
419.067	402.38
419.124	395.49
419.181	427.63
419.238	400.08
419.295	418.45
419.352	361.05
419.409	411.56
419.466	331.2
419.523	423.04
419.579	372.53
419.636	372.53
419.693	365.64
419.75	425.34
419.807	264.62
419.864	395.49
419.921	441.41
419.978	384.01
420.034	312.83
420.091	374.82
420.148	342.68
420.205	328.9
420.262	370.23
420.318	429.93
420.375	420.74
420.432	317.42
420.489	347.27
420.545	395.49
420.602	443.7
420.659	402.38
420.715	432.22
420.772	319.72
420.829	365.64
420.885	331.2
420.942	370.23
420.999	333.5
421.055	374.82
421.112	416.15
421.168	338.09
421.225	381.71
421.282	418.45
421.338	370.23
421.395	349.57
421.451	416.15
421.508	404.67
421.564	349.57
421.621	372.53
421.677	361.05
421.734	326.61
421.79	351.86
421.846	351.86
421.903	363.34
421.959	372.53
422.016	377.12
422.072	363.34
422.128	326.61
422.185	423.04
422.241	358.75
422.297	361.05
422.354	381.71
422.41	386.3
422.466	393.19
422.523	406.97
422.579	450.59
422.635	386.3
422.691	379.42
422.748	384.01
422.804	372.53
422.86	416.15
422.916	393.19
422.972	377.12
423.029	388.6
423.085	436.82
423.141	418.45
423.197	351.86
423.253	356.46
423.309	363.34
423.365	400.08
423.421	372.53
423.477	450.59
423.533	342.68
423.589	441.41
423.645	354.16
423.701	294.46
423.757	333.5
423.813	363.34
423.869	370.23
423.925	409.26
423.981	361.05
424.037	349.57
424.093	390.9
424.149	372.53
424.205	395.49
424.261	390.9
424.317	384.01
424.373	331.2
424.428	427.63
424.484	402.38
424.54	390.9
424.596	452.89
424.652	328.9
424.708	395.49
424.763	370.23
424.819	358.75
424.875	377.12
424.931	310.54
424.986	365.64
425.042	344.98
425.098	393.19
425.153	379.42
425.209	351.86
425.265	374.82
425.32	409.26
425.376	471.26
425.432	372.53
425.487	372.53
425.543	319.72
425.598	390.9
425.654	409.26
425.709	446
425.765	377.12
425.82	379.42
425.876	363.34
425.932	367.94
425.987	390.9
426.042	379.42
426.098	409.26
426.153	413.86
426.209	379.42
426.264	358.75
426.32	400.08
426.375	404.67
426.43	361.05
426.486	381.71
426.541	452.89
426.597	381.71
426.652	374.82
426.707	400.08
426.763	322.02
426.818	390.9
426.873	400.08
426.928	310.54
426.984	404.67
427.039	361.05
427.094	418.45
427.149	335.79
427.205	342.68
427.26	361.05
427.315	395.49
427.37	404.67
427.425	363.34
427.48	423.04
427.536	377.12
427.591	319.72
427.646	319.72
427.701	363.34
427.756	356.46
427.811	471.26
427.866	384.01
427.921	370.23
427.976	395.49
428.031	365.64
428.086	409.26
428.141	324.31
428.196	377.12
428.251	406.97
428.306	365.64
428.361	386.3
428.416	409.26
428.471	379.42
428.526	395.49
428.581	420.74
428.636	333.5
428.691	308.24
428.745	409.26
428.8	338.09
428.855	379.42
428.91	377.12
428.965	409.26
429.02	386.3
429.074	347.27
429.129	340.38
429.184	384.01
429.239	344.98
429.293	397.78
429.348	365.64
429.403	443.7
429.457	315.13
429.512	386.3
429.567	326.61
429.621	342.68
429.676	404.67
429.731	335.79
429.785	365.64
429.84	381.71
429.895	413.86
429.949	420.74
430.004	404.67
430.058	388.6
430.113	386.3
430.167	310.54
430.222	384.01
430.276	443.7
430.331	303.65
430.385	406.97
430.44	384.01
430.494	402.38
430.549	390.9
430.603	370.23
430.657	400.08
430.712	361.05
430.766	342.68
430.821	390.9
430.875	418.45
430.929	418.45
430.984	404.67
431.038	367.94
431.092	312.83
431.147	363.34
431.201	395.49
431.255	374.82
431.309	425.34
431.364	342.68
431.418	423.04
431.472	402.38
431.526	370.23
431.581	367.94
431.635	423.04
431.689	425.34
431.743	370.23
431.797	395.49
431.851	338.09
431.906	388.6
431.96	409.26
432.014	390.9
432.068	406.97
432.122	406.97
432.176	413.86
432.23	404.67
432.284	386.3
432.338	367.94
432.392	354.16
432.446	416.15
432.5	388.6
432.554	374.82
432.608	351.86
432.662	358.75
432.716	372.53
432.77	344.98
432.824	370.23
432.878	409.26
432.931	365.64
432.985	427.63
433.039	395.49
433.093	344.98
433.147	331.2
433.201	347.27
433.254	344.98
433.308	333.5
433.362	367.94
433.416	328.9
433.47	402.38
433.523	354.16
433.577	303.65
433.631	338.09
433.684	374.82
433.738	347.27
433.792	363.34
433.846	365.64
433.899	402.38
433.953	388.6
434.006	365.64
434.06	372.53
434.114	347.27
434.167	347.27
434.221	347.27
