Data from FLMS155811_12-26-35-063.txt Node
Date: Mon Mar 23 12:26:35 MDT 2020
User: ECEn Student
Spectrometer: FLMS15581
Trigger mode: 0
Integration Time (sec): 1.400000E-1
Scans to average: 1
Electric dark correction enabled: true
Nonlinearity correction enabled: false
Boxcar width: 0
XAxis mode: Wavelengths
Number of Pixels in Spectrum: 2048
>>>>>Begin Spectral Data<<<<<
298.026	13.2
298.106	13.2
298.185	13.2
298.265	-83.23
298.344	-85.53
298.424	6.31
298.503	-46.49
298.583	-41.9
298.662	-92.41
298.741	-44.2
298.821	-25.83
298.9	-14.35
298.98	-48.79
299.059	-18.94
299.138	8.61
299.217	91.27
299.297	10.91
299.376	52.23
299.455	-18.94
299.535	77.49
299.614	105.04
299.693	128
299.772	157.85
299.852	206.07
299.931	212.95
300.01	194.59
300.089	210.66
300.168	247.4
300.247	291.02
300.327	325.46
300.406	284.13
300.485	206.07
300.564	293.32
300.643	323.16
300.722	350.72
300.801	279.54
300.88	359.9
300.959	339.24
301.038	316.28
301.117	366.79
301.196	355.31
301.275	440.26
301.354	380.56
301.433	346.12
301.512	339.24
301.591	382.86
301.67	334.64
301.749	373.68
301.828	332.35
301.907	380.56
301.985	387.45
302.064	396.64
302.143	382.86
302.222	325.46
302.301	286.43
302.38	398.93
302.458	375.97
302.537	350.72
302.616	401.23
302.695	316.28
302.773	373.68
302.852	343.83
302.931	366.79
303.01	332.35
303.088	350.72
303.167	346.12
303.246	309.39
303.324	288.72
303.403	353.01
303.481	311.68
303.56	350.72
303.639	373.68
303.717	369.08
303.796	336.94
303.874	288.72
303.953	339.24
304.032	318.57
304.11	316.28
304.189	378.27
304.267	355.31
304.346	325.46
304.424	332.35
304.502	295.61
304.581	288.72
304.659	341.53
304.738	286.43
304.816	311.68
304.895	357.6
304.973	415
305.051	366.79
305.13	389.75
305.208	293.32
305.286	357.6
305.365	353.01
305.443	343.83
305.521	286.43
305.6	343.83
305.678	288.72
305.756	419.6
305.834	364.49
305.913	325.46
305.991	291.02
306.069	318.57
306.147	355.31
306.225	396.64
306.304	355.31
306.382	373.68
306.46	382.86
306.538	396.64
306.616	343.83
306.694	346.12
306.772	382.86
306.85	369.08
306.929	307.09
307.007	309.39
307.085	318.57
307.163	350.72
307.241	334.64
307.319	336.94
307.397	355.31
307.475	387.45
307.553	297.91
307.631	364.49
307.709	437.96
307.786	336.94
307.864	408.12
307.942	387.45
308.02	272.65
308.098	309.39
308.176	369.08
308.254	387.45
308.332	408.12
308.409	272.65
308.487	424.19
308.565	421.89
308.643	362.2
308.721	373.68
308.798	332.35
308.876	394.34
308.954	325.46
309.032	327.76
309.109	378.27
309.187	320.87
309.265	334.64
309.342	327.76
309.42	341.53
309.498	380.56
309.575	380.56
309.653	378.27
309.731	336.94
309.808	389.75
309.886	355.31
309.963	396.64
310.041	343.83
310.119	387.45
310.196	309.39
310.274	378.27
310.351	353.01
310.429	369.08
310.506	362.2
310.584	323.16
310.661	343.83
310.738	359.9
310.816	353.01
310.893	442.56
310.971	389.75
311.048	405.82
311.126	288.72
311.203	382.86
311.28	353.01
311.358	327.76
311.435	316.28
311.512	318.57
311.59	369.08
311.667	341.53
311.744	364.49
311.821	304.8
311.899	387.45
311.976	330.05
312.053	339.24
312.13	378.27
312.208	385.16
312.285	412.71
312.362	302.5
312.439	394.34
312.516	330.05
312.593	357.6
312.671	403.52
312.748	348.42
312.825	375.97
312.902	325.46
312.979	357.6
313.056	325.46
313.133	362.2
313.21	398.93
313.287	323.16
313.364	339.24
313.441	355.31
313.518	309.39
313.595	346.12
313.672	302.5
313.749	343.83
313.826	355.31
313.903	401.23
313.98	364.49
314.057	316.28
314.134	336.94
314.211	373.68
314.287	291.02
314.364	336.94
314.441	373.68
314.518	309.39
314.595	378.27
314.672	355.31
314.748	378.27
314.825	373.68
314.902	332.35
314.979	357.6
315.055	369.08
315.132	334.64
315.209	304.8
315.286	375.97
315.362	366.79
315.439	343.83
315.516	373.68
315.592	366.79
315.669	371.38
315.746	380.56
315.822	373.68
315.899	318.57
315.975	353.01
316.052	419.6
316.128	410.41
316.205	355.31
316.282	396.64
316.358	373.68
316.435	396.64
316.511	424.19
316.588	378.27
316.664	362.2
316.741	369.08
316.817	302.5
316.893	389.75
316.97	371.38
317.046	378.27
317.123	357.6
317.199	394.34
317.275	373.68
317.352	291.02
317.428	307.09
317.504	421.89
317.581	380.56
317.657	300.2
317.733	373.68
317.81	346.12
317.886	398.93
317.962	387.45
318.038	401.23
318.115	359.9
318.191	364.49
318.267	313.98
318.343	357.6
318.419	410.41
318.496	362.2
318.572	336.94
318.648	394.34
318.724	307.09
318.8	332.35
318.876	359.9
318.952	350.72
319.028	357.6
319.105	359.9
319.181	375.97
319.257	389.75
319.333	371.38
319.409	339.24
319.485	362.2
319.561	343.83
319.637	359.9
319.713	392.04
319.789	348.42
319.865	415
319.94	424.19
320.016	398.93
320.092	392.04
320.168	385.16
320.244	302.5
320.32	348.42
320.396	355.31
320.472	387.45
320.547	389.75
320.623	385.16
320.699	316.28
320.775	355.31
320.851	353.01
320.926	387.45
321.002	421.89
321.078	373.68
321.154	346.12
321.229	410.41
321.305	371.38
321.381	343.83
321.456	369.08
321.532	401.23
321.608	387.45
321.683	424.19
321.759	369.08
321.835	426.48
321.91	341.53
321.986	311.68
322.061	385.16
322.137	371.38
322.212	378.27
322.288	394.34
322.364	366.79
322.439	389.75
322.515	369.08
322.59	366.79
322.666	348.42
322.741	279.54
322.816	396.64
322.892	449.44
322.967	426.48
323.043	325.46
323.118	350.72
323.193	398.93
323.269	375.97
323.344	318.57
323.42	396.64
323.495	357.6
323.57	410.41
323.646	380.56
323.721	433.37
323.796	348.42
323.871	362.2
323.947	410.41
324.022	405.82
324.097	412.71
324.172	353.01
324.248	437.96
324.323	405.82
324.398	302.5
324.473	398.93
324.548	392.04
324.623	373.68
324.699	458.63
324.774	325.46
324.849	382.86
324.924	332.35
324.999	378.27
325.074	330.05
325.149	364.49
325.224	447.15
325.299	385.16
325.374	353.01
325.449	375.97
325.524	410.41
325.599	405.82
325.674	389.75
325.749	451.74
325.824	362.2
325.899	396.64
325.974	362.2
326.049	332.35
326.124	371.38
326.199	341.53
326.273	394.34
326.348	405.82
326.423	380.56
326.498	392.04
326.573	353.01
326.648	394.34
326.722	375.97
326.797	387.45
326.872	313.98
326.947	373.68
327.021	463.22
327.096	375.97
327.171	357.6
327.245	394.34
327.32	350.72
327.395	369.08
327.47	366.79
327.544	375.97
327.619	421.89
327.693	412.71
327.768	348.42
327.843	375.97
327.917	334.64
327.992	403.52
328.066	320.87
328.141	339.24
328.215	394.34
328.29	378.27
328.364	375.97
328.439	412.71
328.513	316.28
328.588	375.97
328.662	357.6
328.737	307.09
328.811	366.79
328.886	378.27
328.96	435.67
329.035	362.2
329.109	456.33
329.183	444.85
329.258	362.2
329.332	346.12
329.406	336.94
329.481	382.86
329.555	387.45
329.629	410.41
329.704	382.86
329.778	359.9
329.852	336.94
329.926	371.38
330.001	364.49
330.075	291.02
330.149	394.34
330.223	309.39
330.297	355.31
330.372	382.86
330.446	364.49
330.52	435.67
330.594	401.23
330.668	405.82
330.742	387.45
330.816	346.12
330.89	364.49
330.964	382.86
331.038	362.2
331.113	316.28
331.187	442.56
331.261	309.39
331.335	392.04
331.409	382.86
331.483	355.31
331.557	389.75
331.63	387.45
331.704	364.49
331.778	369.08
331.852	364.49
331.926	355.31
332	366.79
332.074	382.86
332.148	362.2
332.222	373.68
332.295	350.72
332.369	366.79
332.443	309.39
332.517	387.45
332.591	378.27
332.665	389.75
332.738	325.46
332.812	341.53
332.886	398.93
332.959	343.83
333.033	359.9
333.107	355.31
333.181	380.56
333.254	415
333.328	346.12
333.402	412.71
333.475	396.64
333.549	364.49
333.622	334.64
333.696	373.68
333.77	353.01
333.843	339.24
333.917	350.72
333.99	405.82
334.064	382.86
334.137	355.31
334.211	389.75
334.284	353.01
334.358	366.79
334.431	401.23
334.505	392.04
334.578	346.12
334.652	336.94
334.725	380.56
334.799	465.52
334.872	392.04
334.945	300.2
335.019	359.9
335.092	336.94
335.165	327.76
335.239	369.08
335.312	286.43
335.385	380.56
335.459	488.48
335.532	405.82
335.605	348.42
335.678	339.24
335.752	359.9
335.825	284.13
335.898	343.83
335.971	440.26
336.045	353.01
336.118	353.01
336.191	385.16
336.264	410.41
336.337	380.56
336.41	465.52
336.483	410.41
336.557	353.01
336.63	442.56
336.703	401.23
336.776	419.6
336.849	410.41
336.922	405.82
336.995	325.46
337.068	346.12
337.141	419.6
337.214	424.19
337.287	417.3
337.36	392.04
337.433	437.96
337.506	350.72
337.579	371.38
337.652	405.82
337.725	346.12
337.797	401.23
337.87	362.2
337.943	373.68
338.016	394.34
338.089	336.94
338.162	364.49
338.235	369.08
338.307	373.68
338.38	380.56
338.453	332.35
338.526	350.72
338.598	398.93
338.671	364.49
338.744	378.27
338.817	366.79
338.889	463.22
338.962	355.31
339.035	387.45
339.107	293.32
339.18	408.12
339.253	387.45
339.325	304.8
339.398	380.56
339.47	394.34
339.543	382.86
339.616	385.16
339.688	398.93
339.761	355.31
339.833	444.85
339.906	410.41
339.978	398.93
340.051	474.7
340.123	415
340.196	318.57
340.268	378.27
340.341	355.31
340.413	387.45
340.485	398.93
340.558	350.72
340.63	371.38
340.703	433.37
340.775	353.01
340.847	346.12
340.92	389.75
340.992	392.04
341.064	353.01
341.137	378.27
341.209	396.64
341.281	405.82
341.354	382.86
341.426	350.72
341.498	353.01
341.57	353.01
341.643	463.22
341.715	415
341.787	325.46
341.859	387.45
341.931	359.9
342.003	451.74
342.076	375.97
342.148	396.64
342.22	320.87
342.292	394.34
342.364	375.97
342.436	297.91
342.508	403.52
342.58	334.64
342.652	316.28
342.724	348.42
342.796	415
342.868	394.34
342.94	405.82
343.012	355.31
343.084	302.5
343.156	325.46
343.228	348.42
343.3	320.87
343.372	419.6
343.444	330.05
343.516	364.49
343.588	330.05
343.66	371.38
343.731	373.68
343.803	371.38
343.875	373.68
343.947	316.28
344.019	387.45
344.09	309.39
344.162	378.27
344.234	410.41
344.306	355.31
344.377	403.52
344.449	433.37
344.521	435.67
344.593	332.35
344.664	318.57
344.736	412.71
344.808	357.6
344.879	428.78
344.951	362.2
345.023	373.68
345.094	357.6
345.166	357.6
345.237	369.08
345.309	309.39
345.38	369.08
345.452	334.64
345.524	334.64
345.595	357.6
345.667	392.04
345.738	394.34
345.81	350.72
345.881	410.41
345.953	334.64
346.024	396.64
346.095	362.2
346.167	307.09
346.238	369.08
346.31	387.45
346.381	334.64
346.452	336.94
346.524	369.08
346.595	403.52
346.666	403.52
346.738	387.45
346.809	286.43
346.88	302.5
346.952	362.2
347.023	366.79
347.094	334.64
347.165	408.12
347.237	380.56
347.308	424.19
347.379	398.93
347.45	364.49
347.521	359.9
347.593	336.94
347.664	417.3
347.735	401.23
347.806	401.23
347.877	412.71
347.948	300.2
348.019	378.27
348.09	428.78
348.161	332.35
348.233	403.52
348.304	382.86
348.375	343.83
348.446	373.68
348.517	339.24
348.588	325.46
348.659	378.27
348.73	364.49
348.801	341.53
348.871	330.05
348.942	373.68
349.013	325.46
349.084	327.76
349.155	380.56
349.226	371.38
349.297	332.35
349.368	401.23
349.439	350.72
349.509	355.31
349.58	405.82
349.651	385.16
349.722	369.08
349.793	353.01
349.863	364.49
349.934	394.34
350.005	302.5
350.076	412.71
350.146	364.49
350.217	405.82
350.288	330.05
350.358	403.52
350.429	307.09
350.5	346.12
350.57	394.34
350.641	375.97
350.711	353.01
350.782	419.6
350.853	341.53
350.923	371.38
350.994	375.97
351.064	350.72
351.135	341.53
351.205	325.46
351.276	369.08
351.346	403.52
351.417	394.34
351.487	380.56
351.558	387.45
351.628	394.34
351.699	330.05
351.769	408.12
351.84	410.41
351.91	375.97
351.98	320.87
352.051	440.26
352.121	346.12
352.191	341.53
352.262	371.38
352.332	375.97
352.402	398.93
352.473	309.39
352.543	366.79
352.613	401.23
352.683	348.42
352.754	323.16
352.824	392.04
352.894	362.2
352.964	313.98
353.035	375.97
353.105	398.93
353.175	382.86
353.245	378.27
353.315	366.79
353.385	375.97
353.455	410.41
353.526	378.27
353.596	339.24
353.666	394.34
353.736	316.28
353.806	359.9
353.876	394.34
353.946	375.97
354.016	371.38
354.086	364.49
354.156	307.09
354.226	339.24
354.296	426.48
354.366	355.31
354.436	387.45
354.506	392.04
354.576	385.16
354.645	373.68
354.715	313.98
354.785	463.22
354.855	323.16
354.925	348.42
354.995	323.16
355.065	371.38
355.134	327.76
355.204	311.68
355.274	394.34
355.344	343.83
355.414	373.68
355.483	424.19
355.553	311.68
355.623	348.42
355.693	369.08
355.762	341.53
355.832	307.09
355.902	380.56
355.971	398.93
356.041	371.38
356.111	477
356.18	387.45
356.25	332.35
356.319	378.27
356.389	378.27
356.459	371.38
356.528	375.97
356.598	348.42
356.667	311.68
356.737	389.75
356.806	332.35
356.876	325.46
356.945	403.52
357.015	380.56
357.084	350.72
357.154	421.89
357.223	336.94
357.292	380.56
357.362	369.08
357.431	394.34
357.501	339.24
357.57	254.28
357.639	378.27
357.709	385.16
357.778	366.79
357.847	371.38
357.917	373.68
357.986	385.16
358.055	398.93
358.124	380.56
358.194	405.82
358.263	387.45
358.332	362.2
358.401	332.35
358.471	387.45
358.54	394.34
358.609	348.42
358.678	355.31
358.747	362.2
358.816	357.6
358.886	417.3
358.955	284.13
359.024	359.9
359.093	433.37
359.162	435.67
359.231	392.04
359.3	366.79
359.369	385.16
359.438	339.24
359.507	336.94
359.576	291.02
359.645	444.85
359.714	389.75
359.783	385.16
359.852	401.23
359.921	382.86
359.99	392.04
360.059	323.16
360.128	444.85
360.197	396.64
360.266	350.72
360.334	428.78
360.403	371.38
360.472	323.16
360.541	307.09
360.61	375.97
360.679	387.45
360.747	415
360.816	380.56
360.885	378.27
360.954	394.34
361.022	375.97
361.091	320.87
361.16	323.16
361.228	389.75
361.297	348.42
361.366	398.93
361.434	408.12
361.503	421.89
361.572	415
361.64	389.75
361.709	396.64
361.778	401.23
361.846	316.28
361.915	293.32
361.983	336.94
362.052	389.75
362.12	359.9
362.189	364.49
362.257	403.52
362.326	378.27
362.394	346.12
362.463	334.64
362.531	433.37
362.6	362.2
362.668	408.12
362.737	359.9
362.805	355.31
362.873	348.42
362.942	373.68
363.01	392.04
363.079	394.34
363.147	355.31
363.215	417.3
363.284	405.82
363.352	382.86
363.42	408.12
363.488	382.86
363.557	373.68
363.625	380.56
363.693	382.86
363.761	332.35
363.83	327.76
363.898	401.23
363.966	313.98
364.034	355.31
364.102	353.01
364.171	346.12
364.239	410.41
364.307	389.75
364.375	359.9
364.443	369.08
364.511	410.41
364.579	355.31
364.647	373.68
364.715	316.28
364.783	343.83
364.851	327.76
364.919	355.31
364.987	396.64
365.055	346.12
365.123	346.12
365.191	346.12
365.259	369.08
365.327	389.75
365.395	346.12
365.463	346.12
365.531	346.12
365.599	362.2
365.667	378.27
365.735	373.68
365.802	419.6
365.87	341.53
365.938	396.64
366.006	398.93
366.074	359.9
366.142	369.08
366.209	417.3
366.277	334.64
366.345	336.94
366.413	481.59
366.48	375.97
366.548	336.94
366.616	447.15
366.683	341.53
366.751	369.08
366.819	389.75
366.886	447.15
366.954	405.82
367.022	380.56
367.089	316.28
367.157	313.98
367.224	318.57
367.292	417.3
367.36	419.6
367.427	369.08
367.495	297.91
367.562	336.94
367.63	336.94
367.697	318.57
367.765	339.24
367.832	387.45
367.9	401.23
367.967	415
368.034	346.12
368.102	343.83
368.169	389.75
368.237	350.72
368.304	353.01
368.371	286.43
368.439	382.86
368.506	373.68
368.573	353.01
368.641	428.78
368.708	417.3
368.775	419.6
368.843	323.16
368.91	341.53
368.977	336.94
369.044	355.31
369.112	332.35
369.179	444.85
369.246	375.97
369.313	369.08
369.38	373.68
369.448	380.56
369.515	387.45
369.582	362.2
369.649	339.24
369.716	396.64
369.783	419.6
369.85	412.71
369.917	369.08
369.984	362.2
370.052	394.34
370.119	428.78
370.186	353.01
370.253	371.38
370.32	378.27
370.387	431.08
370.454	410.41
370.521	341.53
370.587	364.49
370.654	380.56
370.721	403.52
370.788	392.04
370.855	463.22
370.922	323.16
370.989	327.76
371.056	288.72
371.123	378.27
371.189	364.49
371.256	417.3
371.323	373.68
371.39	382.86
371.457	380.56
371.523	291.02
371.59	442.56
371.657	364.49
371.724	387.45
371.79	359.9
371.857	405.82
371.924	297.91
371.991	373.68
372.057	385.16
372.124	398.93
372.191	362.2
372.257	428.78
372.324	382.86
372.39	389.75
372.457	346.12
372.524	401.23
372.59	327.76
372.657	318.57
372.723	392.04
372.79	396.64
372.856	346.12
372.923	392.04
372.989	419.6
373.056	313.98
373.122	408.12
373.189	313.98
373.255	364.49
373.322	415
373.388	320.87
373.454	369.08
373.521	408.12
373.587	355.31
373.654	334.64
373.72	375.97
373.786	334.64
373.853	355.31
373.919	355.31
373.985	327.76
374.052	316.28
374.118	364.49
374.184	364.49
374.25	396.64
374.317	410.41
374.383	355.31
374.449	378.27
374.515	387.45
374.581	362.2
374.648	332.35
374.714	332.35
374.78	394.34
374.846	426.48
374.912	387.45
374.978	311.68
375.044	385.16
375.11	385.16
375.177	369.08
375.243	353.01
375.309	444.85
375.375	394.34
375.441	353.01
375.507	389.75
375.573	364.49
375.639	336.94
375.705	366.79
375.771	355.31
375.837	355.31
375.903	355.31
375.968	332.35
376.034	398.93
376.1	382.86
376.166	291.02
376.232	387.45
376.298	403.52
376.364	364.49
376.43	382.86
376.495	396.64
376.561	297.91
376.627	316.28
376.693	369.08
376.759	359.9
376.824	380.56
376.89	300.2
376.956	355.31
377.022	440.26
377.087	426.48
377.153	405.82
377.219	364.49
377.284	355.31
377.35	385.16
377.416	359.9
377.481	297.91
377.547	336.94
377.613	415
377.678	385.16
377.744	357.6
377.809	419.6
377.875	396.64
377.94	408.12
378.006	316.28
378.071	417.3
378.137	346.12
378.202	385.16
378.268	373.68
378.333	415
378.399	387.45
378.464	304.8
378.53	353.01
378.595	341.53
378.661	449.44
378.726	307.09
378.791	398.93
378.857	359.9
378.922	398.93
378.987	385.16
379.053	373.68
379.118	341.53
379.183	431.08
379.249	387.45
379.314	380.56
379.379	350.72
379.444	380.56
379.51	394.34
379.575	316.28
379.64	313.98
379.705	408.12
379.771	378.27
379.836	380.56
379.901	350.72
379.966	375.97
380.031	401.23
380.096	362.2
380.161	355.31
380.227	403.52
380.292	362.2
380.357	382.86
380.422	378.27
380.487	405.82
380.552	385.16
380.617	382.86
380.682	350.72
380.747	385.16
380.812	343.83
380.877	421.89
380.942	378.27
381.007	375.97
381.072	375.97
381.137	378.27
381.202	421.89
381.266	366.79
381.331	385.16
381.396	362.2
381.461	371.38
381.526	339.24
381.591	357.6
381.656	330.05
381.72	437.96
381.785	392.04
381.85	380.56
381.915	412.71
381.979	449.44
382.044	313.98
382.109	318.57
382.174	382.86
382.238	307.09
382.303	380.56
382.368	380.56
382.432	378.27
382.497	336.94
382.562	336.94
382.626	419.6
382.691	355.31
382.756	371.38
382.82	304.8
382.885	350.72
382.949	382.86
383.014	323.16
383.078	405.82
383.143	330.05
383.208	357.6
383.272	369.08
383.337	348.42
383.401	385.16
383.465	348.42
383.53	357.6
383.594	302.5
383.659	357.6
383.723	389.75
383.788	389.75
383.852	458.63
383.916	371.38
383.981	371.38
384.045	332.35
384.109	401.23
384.174	380.56
384.238	378.27
384.302	378.27
384.367	389.75
384.431	364.49
384.495	373.68
384.56	421.89
384.624	343.83
384.688	355.31
384.752	364.49
384.816	364.49
384.881	362.2
384.945	410.41
385.009	309.39
385.073	336.94
385.137	313.98
385.201	313.98
385.265	410.41
385.33	373.68
385.394	318.57
385.458	398.93
385.522	261.17
385.586	346.12
385.65	336.94
385.714	341.53
385.778	392.04
385.842	424.19
385.906	350.72
385.97	350.72
386.034	362.2
386.098	318.57
386.162	394.34
386.226	380.56
386.29	334.64
386.354	327.76
386.417	355.31
386.481	389.75
386.545	359.9
386.609	341.53
386.673	355.31
386.737	387.45
386.8	359.9
386.864	454.04
386.928	408.12
386.992	428.78
387.056	389.75
387.119	320.87
387.183	364.49
387.247	387.45
387.31	346.12
387.374	359.9
387.438	394.34
387.502	369.08
387.565	307.09
387.629	291.02
387.692	307.09
387.756	394.34
387.82	417.3
387.883	364.49
387.947	378.27
388.01	359.9
388.074	371.38
388.138	364.49
388.201	336.94
388.265	398.93
388.328	366.79
388.392	387.45
388.455	336.94
388.519	332.35
388.582	318.57
388.645	293.32
388.709	366.79
388.772	350.72
388.836	353.01
388.899	341.53
388.962	394.34
389.026	293.32
389.089	385.16
389.153	332.35
389.216	380.56
389.279	353.01
389.343	371.38
389.406	330.05
389.469	371.38
389.532	369.08
389.596	295.61
389.659	410.41
389.722	440.26
389.785	405.82
389.848	362.2
389.912	343.83
389.975	332.35
390.038	348.42
390.101	343.83
390.164	405.82
390.227	415
390.291	307.09
390.354	380.56
390.417	304.8
390.48	371.38
390.543	362.2
390.606	359.9
390.669	378.27
390.732	440.26
390.795	369.08
390.858	373.68
390.921	412.71
390.984	307.09
391.047	380.56
391.11	307.09
391.173	336.94
391.236	362.2
391.299	359.9
391.362	318.57
391.424	405.82
391.487	336.94
391.55	382.86
391.613	343.83
391.676	373.68
391.739	375.97
391.802	327.76
391.864	382.86
391.927	373.68
391.99	410.41
392.053	311.68
392.115	405.82
392.178	373.68
392.241	378.27
392.304	336.94
392.366	375.97
392.429	353.01
392.492	396.64
392.554	353.01
392.617	419.6
392.68	403.52
392.742	373.68
392.805	385.16
392.867	387.45
392.93	392.04
392.992	394.34
393.055	373.68
393.118	385.16
393.18	325.46
393.243	373.68
393.305	357.6
393.368	373.68
393.43	385.16
393.493	378.27
393.555	355.31
393.618	380.56
393.68	341.53
393.742	366.79
393.805	412.71
393.867	369.08
393.93	350.72
393.992	297.91
394.054	334.64
394.117	380.56
394.179	421.89
394.241	362.2
394.304	382.86
394.366	401.23
394.428	359.9
394.49	366.79
394.553	415
394.615	346.12
394.677	318.57
394.739	380.56
394.802	403.52
394.864	288.72
394.926	401.23
394.988	341.53
395.05	327.76
395.112	348.42
395.174	369.08
395.237	355.31
395.299	362.2
395.361	359.9
395.423	348.42
395.485	366.79
395.547	350.72
395.609	373.68
395.671	334.64
395.733	394.34
395.795	366.79
395.857	311.68
395.919	332.35
395.981	424.19
396.043	348.42
396.105	348.42
396.167	357.6
396.229	380.56
396.291	362.2
396.352	398.93
396.414	343.83
396.476	357.6
396.538	327.76
396.6	318.57
396.662	369.08
396.724	291.02
396.785	339.24
396.847	405.82
396.909	336.94
396.971	293.32
397.032	332.35
397.094	408.12
397.156	431.08
397.218	369.08
397.279	371.38
397.341	389.75
397.403	309.39
397.464	371.38
397.526	353.01
397.588	415
397.649	378.27
397.711	387.45
397.772	309.39
397.834	396.64
397.896	270.36
397.957	380.56
398.019	334.64
398.08	318.57
398.142	302.5
398.203	456.33
398.265	346.12
398.326	392.04
398.388	336.94
398.449	371.38
398.511	373.68
398.572	355.31
398.633	382.86
398.695	341.53
398.756	405.82
398.818	428.78
398.879	373.68
398.94	350.72
399.002	385.16
399.063	394.34
399.124	405.82
399.186	346.12
399.247	357.6
399.308	371.38
399.369	403.52
399.431	426.48
399.492	415
399.553	380.56
399.614	410.41
399.676	357.6
399.737	364.49
399.798	380.56
399.859	428.78
399.92	382.86
399.981	389.75
400.042	396.64
400.104	304.8
400.165	419.6
400.226	350.72
400.287	364.49
400.348	311.68
400.409	385.16
400.47	392.04
400.531	394.34
400.592	474.7
400.653	256.58
400.714	366.79
400.775	378.27
400.836	394.34
400.897	323.16
400.958	362.2
401.019	398.93
401.08	343.83
401.141	362.2
401.201	366.79
401.262	401.23
401.323	346.12
401.384	323.16
401.445	359.9
401.506	362.2
401.567	401.23
401.627	295.61
401.688	348.42
401.749	371.38
401.81	373.68
401.87	355.31
401.931	385.16
401.992	385.16
402.053	437.96
402.113	378.27
402.174	373.68
402.235	353.01
402.295	348.42
402.356	378.27
402.417	339.24
402.477	364.49
402.538	332.35
402.598	380.56
402.659	325.46
402.719	353.01
402.78	359.9
402.841	362.2
402.901	332.35
402.962	355.31
403.022	323.16
403.083	426.48
403.143	332.35
403.204	403.52
403.264	369.08
403.324	385.16
403.385	327.76
403.445	380.56
403.506	394.34
403.566	316.28
403.627	353.01
403.687	405.82
403.747	405.82
403.808	375.97
403.868	346.12
403.928	387.45
403.989	316.28
404.049	375.97
404.109	320.87
404.169	346.12
404.23	348.42
404.29	323.16
404.35	311.68
404.41	366.79
404.47	387.45
404.531	353.01
404.591	440.26
404.651	398.93
404.711	385.16
404.771	293.32
404.831	373.68
404.892	325.46
404.952	382.86
405.012	371.38
405.072	385.16
405.132	387.45
405.192	369.08
405.252	382.86
405.312	323.16
405.372	348.42
405.432	389.75
405.492	343.83
405.552	373.68
405.612	343.83
405.672	357.6
405.732	392.04
405.792	355.31
405.852	341.53
405.912	364.49
405.971	394.34
406.031	295.61
406.091	355.31
406.151	371.38
406.211	405.82
406.271	421.89
406.33	362.2
406.39	359.9
406.45	350.72
406.51	348.42
406.57	330.05
406.629	336.94
406.689	362.2
406.749	362.2
406.808	366.79
406.868	394.34
406.928	346.12
406.988	359.9
407.047	382.86
407.107	343.83
407.166	371.38
407.226	300.2
407.286	339.24
407.345	309.39
407.405	318.57
407.464	359.9
407.524	309.39
407.584	348.42
407.643	364.49
407.703	401.23
407.762	353.01
407.822	350.72
407.881	481.59
407.941	378.27
408	341.53
408.059	378.27
408.119	339.24
408.178	415
408.238	371.38
408.297	380.56
408.356	375.97
408.416	325.46
408.475	440.26
408.535	419.6
408.594	350.72
408.653	408.12
408.712	355.31
408.772	417.3
408.831	336.94
408.89	339.24
408.95	369.08
409.009	401.23
409.068	350.72
409.127	369.08
409.186	398.93
409.246	375.97
409.305	336.94
409.364	348.42
409.423	389.75
409.482	392.04
409.541	330.05
409.6	369.08
409.66	353.01
409.719	447.15
409.778	405.82
409.837	421.89
409.896	357.6
409.955	405.82
410.014	318.57
410.073	375.97
410.132	297.91
410.191	348.42
410.25	366.79
410.309	437.96
410.368	334.64
410.427	410.41
410.486	334.64
410.545	371.38
410.603	341.53
410.662	378.27
410.721	359.9
410.78	336.94
410.839	364.49
410.898	284.13
410.957	408.12
411.015	339.24
411.074	428.78
411.133	387.45
411.192	385.16
411.25	382.86
411.309	375.97
411.368	327.76
411.427	394.34
411.485	403.52
411.544	456.33
411.603	371.38
411.661	323.16
411.72	394.34
411.779	380.56
411.837	373.68
411.896	341.53
411.955	394.34
412.013	357.6
412.072	369.08
412.13	313.98
412.189	417.3
412.247	371.38
412.306	375.97
412.364	366.79
412.423	440.26
412.481	336.94
412.54	382.86
412.598	343.83
412.657	293.32
412.715	330.05
412.774	373.68
412.832	309.39
412.891	341.53
412.949	316.28
413.007	421.89
413.066	364.49
413.124	313.98
413.182	362.2
413.241	341.53
413.299	394.34
413.357	327.76
413.416	353.01
413.474	295.61
413.532	412.71
413.59	371.38
413.649	396.64
413.707	341.53
413.765	348.42
413.823	330.05
413.881	313.98
413.94	330.05
413.998	357.6
414.056	444.85
414.114	385.16
414.172	353.01
414.23	362.2
414.288	375.97
414.347	378.27
414.405	339.24
414.463	396.64
414.521	369.08
414.579	343.83
414.637	380.56
414.695	302.5
414.753	343.83
414.811	320.87
414.869	327.76
414.927	336.94
414.985	279.54
415.043	304.8
415.101	353.01
415.158	401.23
415.216	373.68
415.274	355.31
415.332	375.97
415.39	373.68
415.448	323.16
415.506	364.49
415.563	318.57
415.621	403.52
415.679	415
415.737	353.01
415.795	346.12
415.852	405.82
415.91	348.42
415.968	343.83
416.026	437.96
416.083	323.16
416.141	339.24
416.199	371.38
416.256	359.9
416.314	341.53
416.372	380.56
416.429	389.75
416.487	359.9
416.544	380.56
416.602	403.52
416.66	355.31
416.717	341.53
416.775	394.34
416.832	364.49
416.89	353.01
416.947	396.64
417.005	316.28
417.062	394.34
417.12	419.6
417.177	350.72
417.235	307.09
417.292	313.98
417.35	334.64
417.407	378.27
417.464	362.2
417.522	392.04
417.579	371.38
417.637	291.02
417.694	385.16
417.751	346.12
417.809	382.86
417.866	332.35
417.923	341.53
417.981	366.79
418.038	428.78
418.095	355.31
418.152	348.42
418.21	371.38
418.267	362.2
418.324	396.64
418.381	396.64
418.438	431.08
418.496	313.98
418.553	369.08
418.61	339.24
418.667	311.68
418.724	357.6
418.781	307.09
418.838	385.16
418.895	389.75
418.952	357.6
419.01	334.64
419.067	336.94
419.124	334.64
419.181	387.45
419.238	366.79
419.295	405.82
419.352	415
419.409	437.96
419.466	353.01
419.523	371.38
419.579	353.01
419.636	357.6
419.693	332.35
419.75	364.49
419.807	355.31
419.864	382.86
419.921	334.64
419.978	417.3
420.034	350.72
420.091	336.94
420.148	369.08
420.205	359.9
420.262	405.82
420.318	343.83
420.375	323.16
420.432	366.79
420.489	284.13
420.545	330.05
420.602	355.31
420.659	293.32
420.715	385.16
420.772	394.34
420.829	371.38
420.885	304.8
420.942	320.87
420.999	380.56
421.055	320.87
421.112	350.72
421.168	316.28
421.225	426.48
421.282	378.27
421.338	343.83
421.395	330.05
421.451	382.86
421.508	405.82
421.564	366.79
421.621	373.68
421.677	343.83
421.734	350.72
421.79	307.09
421.846	366.79
421.903	355.31
421.959	355.31
422.016	348.42
422.072	313.98
422.128	426.48
422.185	373.68
422.241	373.68
422.297	334.64
422.354	334.64
422.41	410.41
422.466	323.16
422.523	401.23
422.579	346.12
422.635	350.72
422.691	424.19
422.748	385.16
422.804	355.31
422.86	382.86
422.916	366.79
422.972	398.93
423.029	343.83
423.085	387.45
423.141	387.45
423.197	362.2
423.253	291.02
423.309	341.53
423.365	316.28
423.421	320.87
423.477	369.08
423.533	336.94
423.589	389.75
423.645	336.94
423.701	403.52
423.757	297.91
423.813	401.23
423.869	355.31
423.925	350.72
423.981	357.6
424.037	359.9
424.093	369.08
424.149	346.12
424.205	334.64
424.261	426.48
424.317	408.12
424.373	366.79
424.428	327.76
424.484	378.27
424.54	373.68
424.596	318.57
424.652	348.42
424.708	373.68
424.763	343.83
424.819	350.72
424.875	378.27
424.931	357.6
424.986	373.68
425.042	373.68
425.098	366.79
425.153	339.24
425.209	421.89
425.265	369.08
425.32	437.96
425.376	348.42
425.432	302.5
425.487	348.42
425.543	297.91
425.598	424.19
425.654	380.56
425.709	357.6
425.765	403.52
425.82	327.76
425.876	362.2
425.932	355.31
425.987	353.01
426.042	398.93
426.098	359.9
426.153	396.64
426.209	341.53
426.264	350.72
426.32	419.6
426.375	348.42
426.43	366.79
426.486	417.3
426.541	330.05
426.597	346.12
426.652	353.01
426.707	375.97
426.763	378.27
426.818	353.01
426.873	359.9
426.928	415
426.984	242.8
427.039	316.28
427.094	369.08
427.149	375.97
427.205	316.28
427.26	336.94
427.315	332.35
427.37	366.79
427.425	320.87
427.48	336.94
427.536	332.35
427.591	288.72
427.646	334.64
427.701	417.3
427.756	346.12
427.811	284.13
427.866	355.31
427.921	364.49
427.976	369.08
428.031	401.23
428.086	353.01
428.141	392.04
428.196	346.12
428.251	311.68
428.306	336.94
428.361	396.64
428.416	382.86
428.471	350.72
428.526	334.64
428.581	369.08
428.636	366.79
428.691	350.72
428.745	371.38
428.8	433.37
428.855	343.83
428.91	375.97
428.965	371.38
429.02	313.98
429.074	389.75
429.129	346.12
429.184	353.01
429.239	382.86
429.293	316.28
429.348	369.08
429.403	382.86
429.457	387.45
429.512	401.23
429.567	378.27
429.621	366.79
429.676	378.27
429.731	339.24
429.785	359.9
429.84	435.67
429.895	394.34
429.949	421.89
430.004	389.75
430.058	348.42
430.113	396.64
430.167	284.13
430.222	412.71
430.276	359.9
430.331	380.56
430.385	431.08
430.44	362.2
430.494	334.64
430.549	385.16
430.603	392.04
430.657	394.34
430.712	304.8
430.766	369.08
430.821	353.01
430.875	350.72
430.929	426.48
430.984	417.3
431.038	357.6
431.092	336.94
431.147	325.46
431.201	373.68
431.255	392.04
431.309	380.56
431.364	332.35
431.418	382.86
431.472	364.49
431.526	359.9
431.581	401.23
431.635	385.16
431.689	373.68
431.743	373.68
431.797	362.2
431.851	405.82
431.906	398.93
431.96	415
432.014	387.45
432.068	364.49
432.122	366.79
432.176	327.76
432.23	343.83
432.284	362.2
432.338	364.49
432.392	330.05
432.446	364.49
432.5	327.76
432.554	295.61
432.608	281.84
432.662	362.2
432.716	364.49
432.77	401.23
432.824	302.5
432.878	369.08
432.931	382.86
432.985	350.72
433.039	332.35
433.093	353.01
433.147	403.52
433.201	382.86
433.254	362.2
433.308	371.38
433.362	378.27
433.416	362.2
433.47	323.16
433.523	291.02
433.577	369.08
433.631	398.93
433.684	382.86
433.738	343.83
433.792	392.04
433.846	362.2
433.899	369.08
433.953	410.41
434.006	387.45
434.06	313.98
434.114	346.12
434.167	346.12
434.221	346.12
