Data from QEPB00791_17-10-07-458.txt Node
Date: Mon Jan 20 17:10:07 MST 2020
User: ecestudent
Spectrometer: QEPB0079
Trigger mode: 0
Integration Time (sec): 8.000000E-3
Scans to average: 1
Electric dark correction enabled: true
Nonlinearity correction enabled: false
Boxcar width: 0
XAxis mode: Wavelengths
Number of Pixels in Spectrum: 1044
>>>>>Begin Spectral Data<<<<<
198.864	32
199.671	34
200.477	31
201.284	28
202.091	34
202.897	29
203.704	33
204.51	29
205.317	33
206.123	30
206.929	30
207.736	32
208.542	31
209.348	39
210.154	35
210.96	34
211.765	36
212.571	37
213.377	40
214.182	35
214.988	35
215.793	34
216.599	36
217.404	37
218.209	32
219.015	36
219.82	33
220.625	37
221.43	36
222.235	40
223.039	38
223.844	32
224.649	38
225.453	37
226.258	39
227.062	38
227.867	34
228.671	37
229.475	37
230.28	38
231.084	38
231.888	40
232.692	38
233.496	37
234.299	41
235.103	38
235.907	40
236.71	37
237.514	41
238.317	43
239.121	41
239.924	43
240.727	40
241.531	45
242.334	44
243.137	43
243.94	44
244.743	43
245.545	51
246.348	44
247.151	44
247.954	47
248.756	44
249.559	48
250.361	52
251.163	53
251.965	46
252.768	55
253.57	48
254.372	51
255.174	56
255.976	53
256.777	52
257.579	54
258.381	56
259.183	56
259.984	50
260.786	55
261.587	55
262.388	60
263.189	56
263.991	55
264.792	58
265.593	60
266.394	64
267.195	62
267.995	65
268.796	62
269.597	65
270.397	69
271.198	63
271.998	66
272.799	66
273.599	75
274.399	69
275.2	75
276	77
276.8	75
277.6	76
278.4	79
279.199	82
279.999	80
280.799	82
281.598	85
282.398	87
283.197	92
283.997	88
284.796	98
285.595	93
286.395	102
287.194	102
287.993	102
288.792	107
289.59	111
290.389	121
291.188	120
291.987	124
292.785	132
293.584	133
294.382	143
295.181	153
295.979	160
296.777	178
297.575	178
298.373	190
299.171	212
299.969	222
300.767	234
301.565	252
302.363	267
303.16	279
303.958	296
304.756	313
305.553	323
306.35	337
307.148	360
307.945	402
308.742	427
309.539	462
310.336	504
311.133	537
311.93	556
312.727	603
313.524	678
314.32	744
315.117	794
315.913	813
316.71	840
317.506	842
318.302	854
319.099	871
319.895	884
320.691	902
321.487	923
322.283	928
323.079	961
323.874	976
324.67	1009
325.466	1020
326.261	1041
327.057	1070
327.852	1120
328.648	1188
329.443	1276
330.238	1362
331.033	1493
331.828	1658
332.623	1872
333.418	2076
334.213	2165
335.008	2174
335.803	2148
336.597	2082
337.392	2064
338.186	2078
338.981	2144
339.775	2237
340.57	2310
341.364	2393
342.158	2489
342.952	2626
343.746	2727
344.54	2797
345.334	2868
346.127	2955
346.921	2995
347.715	3040
348.508	3049
349.302	3047
350.095	3075
350.889	3117
351.682	3171
352.475	3292
353.268	3376
354.061	3463
354.854	3543
355.647	3658
356.44	3813
357.233	3985
358.025	4192
358.818	4607
359.611	5188
360.403	6062
361.195	7475
361.988	9172
362.78	10692
363.572	11606
364.364	12207
365.156	12879
365.948	13588
366.74	14068
367.532	13903
368.324	13401
369.116	12736
369.907	11985
370.699	11263
371.49	10603
372.282	10135
373.073	9695
373.864	9311
374.655	8967
375.446	8702
376.237	8500
377.028	8369
377.819	8317
378.61	8263
379.401	8187
380.192	8189
380.982	8160
381.773	8256
382.563	8354
383.354	8431
384.144	8541
384.934	8680
385.724	8804
386.514	8869
387.304	8953
388.094	8919
388.884	9050
389.674	9041
390.464	9117
391.253	9169
392.043	9320
392.832	9450
393.622	9626
394.411	9816
395.201	9941
395.99	10172
396.779	10354
397.568	10615
398.357	10865
399.146	11261
399.935	11782
400.724	12897
401.512	15015
402.301	18941
403.09	24176
403.878	29098
404.667	31977
405.455	32154
406.243	30229
407.031	27436
407.82	24571
408.608	22371
409.396	20839
410.184	19901
410.971	19341
411.759	18783
412.547	18228
413.334	17463
414.122	16871
414.91	16321
415.697	16110
416.484	15990
417.272	15994
418.059	16052
418.846	16317
419.633	16586
420.42	16962
421.207	17356
421.994	17780
422.78	18180
423.567	18624
424.354	19019
425.14	19503
425.927	20008
426.713	20765
427.499	21658
428.286	22848
429.072	24101
429.858	25032
430.644	25712
431.43	26174
432.216	27217
433.002	29904
433.787	33829
434.573	38357
435.359	43210
436.144	47100
436.93	49049
437.715	48424
438.5	45349
439.286	41185
440.071	37011
440.856	33393
441.641	30425
442.426	28152
443.211	26447
443.996	25198
444.78	24154
445.565	23413
446.35	22686
447.134	21875
447.919	21101
448.703	20222
449.487	19504
450.271	18743
451.056	18020
451.84	17401
452.624	16944
453.408	16669
454.191	16521
454.975	16458
455.759	16362
456.543	16255
457.326	15977
458.11	15561
458.893	15016
459.676	14504
460.46	14111
461.243	13815
462.026	13547
462.809	13488
463.592	13475
464.375	13403
465.158	13482
465.941	13583
466.723	13806
467.506	14012
468.288	14118
469.071	14413
469.853	14617
470.636	14866
471.418	15147
472.2	15354
472.982	15342
473.764	15173
474.546	14968
475.328	14695
476.11	14445
476.892	14317
477.673	14155
478.455	14120
479.236	14145
480.018	14347
480.799	14556
481.581	14946
482.362	15343
483.143	15870
483.924	16401
484.705	16780
485.486	16962
486.267	16877
487.048	16656
487.828	16348
488.609	16019
489.39	15565
490.17	15090
490.951	14470
491.731	13680
492.511	12981
493.292	12458
494.072	12202
494.852	11985
495.632	11755
496.412	11486
497.192	11264
497.971	11037
498.751	10925
499.531	10745
500.31	10640
501.09	10558
501.869	10471
502.648	10374
503.428	10288
504.207	10282
504.986	10222
505.765	10234
506.544	10192
507.323	10215
508.102	10209
508.881	10267
509.659	10263
510.438	10228
511.216	10296
511.995	10327
512.773	10375
513.552	10378
514.33	10403
515.108	10473
515.886	10453
516.664	10454
517.442	10509
518.22	10499
518.998	10527
519.775	10535
520.553	10581
521.331	10639
522.108	10663
522.886	10724
523.663	10764
524.44	10852
525.218	10947
525.995	11122
526.772	11258
527.549	11471
528.326	11790
529.103	12295
529.879	12944
530.656	13693
531.433	14539
532.209	15307
532.986	15999
533.762	16612
534.539	17403
535.315	18336
536.091	19491
536.867	20872
537.643	22112
538.419	23306
539.195	24266
539.971	25118
540.747	26111
541.522	27850
542.298	31546
543.074	40697
543.849	55249
544.624	63140
545.4	63140
546.175	63140
546.95	63140
547.725	63140
548.5	63140
549.275	63140
550.05	63140
550.825	63140
551.6	63140
552.374	59855
553.149	53097
553.923	48101
554.698	44161
555.472	40585
556.247	37607
557.021	35172
557.795	33195
558.569	31737
559.343	30560
560.117	29618
560.891	28835
561.665	27913
562.438	26806
563.212	25763
563.985	24654
564.759	23834
565.532	23410
566.306	23383
567.079	23754
567.852	24876
568.625	26824
569.398	29729
570.171	33593
570.944	38524
571.717	44270
572.49	50304
573.262	56112
574.035	61144
574.808	63140
575.58	63140
576.352	63140
577.125	63140
577.897	63140
578.669	59791
579.441	56040
580.213	52298
580.985	48874
581.757	45737
582.529	42573
583.301	39786
584.072	37052
584.844	34739
585.615	32561
586.387	30818
587.158	29278
587.929	27827
588.701	26551
589.472	25407
590.243	24348
591.014	23545
591.785	22802
592.556	22281
593.326	21775
594.097	21229
594.868	20496
595.638	19790
596.409	19019
597.179	18286
597.949	17670
598.72	17167
599.49	16733
600.26	16303
601.03	15854
601.8	15647
602.57	15293
603.34	15026
604.109	14797
604.879	14517
605.649	14313
606.418	14080
607.188	13897
607.957	13767
608.726	13616
609.496	13483
610.265	13293
611.034	13088
611.803	12972
612.572	12784
613.341	12660
614.109	12523
614.878	12391
615.647	12278
616.415	12171
617.184	12092
617.952	11983
618.721	11882
619.489	11874
620.257	11780
621.025	11712
621.793	11648
622.561	11666
623.329	11632
624.097	11560
624.865	11536
625.632	11531
626.4	11420
627.168	11419
627.935	11357
628.702	11330
629.47	11298
630.237	11271
631.004	11251
631.771	11194
632.538	11127
633.305	11104
634.072	11076
634.839	11000
635.606	10987
636.372	10935
637.139	10894
637.905	10899
638.672	10849
639.438	10802
640.204	10807
640.971	10738
641.737	10719
642.503	10655
643.269	10611
644.035	10644
644.8	10648
645.566	10589
646.332	10511
647.097	10470
647.863	10465
648.629	10411
649.394	10389
650.159	10331
650.924	10305
651.69	10271
652.455	10285
653.22	10253
653.985	10269
654.75	10254
655.514	10210
656.279	10211
657.044	10176
657.808	10169
658.573	10166
659.337	10139
660.102	10170
660.866	10106
661.63	10094
662.394	10103
663.158	10086
663.922	10047
664.686	10051
665.45	10065
666.214	10020
666.978	10036
667.741	10031
668.505	10015
669.268	10003
670.032	9990
670.795	10009
671.558	9964
672.321	9917
673.084	9871
673.847	9858
674.61	9850
675.373	9814
676.136	9823
676.899	9820
677.662	9797
678.424	9783
679.187	9757
679.949	9781
680.711	9738
681.474	9715
682.236	9733
682.998	9737
683.76	9695
684.522	9749
685.284	9711
686.046	9766
686.808	9704
687.569	9757
688.331	9721
689.092	9775
689.854	9727
690.615	9843
691.377	9824
692.138	9942
692.899	10003
693.66	10010
694.421	10014
695.182	9977
695.943	9896
696.704	9897
697.465	9764
698.225	9756
698.986	9688
699.746	9628
700.507	9601
701.267	9508
702.027	9474
702.788	9451
703.548	9402
704.308	9368
705.068	9355
705.828	9277
706.588	9268
707.347	9254
708.107	9155
708.867	9188
709.626	9185
710.386	9121
711.145	9072
711.904	9027
712.664	8954
713.423	8868
714.182	8802
714.941	8719
715.7	8660
716.459	8557
717.218	8513
717.976	8437
718.735	8402
719.494	8301
720.252	8242
721.011	8205
721.769	8120
722.527	8098
723.285	8001
724.044	8003
724.802	7929
725.56	7874
726.317	7768
727.075	7704
727.833	7586
728.591	7497
729.348	7316
730.106	7131
730.863	6987
731.621	6837
732.378	6745
733.135	6580
733.893	6408
734.65	6313
735.407	6154
736.164	6060
736.92	5983
737.677	5815
738.434	5770
739.191	5681
739.947	5587
740.704	5481
741.46	5416
742.216	5357
742.973	5277
743.729	5233
744.485	5131
745.241	5039
745.997	4994
746.753	4925
747.509	4873
748.265	4796
749.02	4756
749.776	4657
750.531	4650
751.287	4549
752.042	4524
752.798	4433
753.553	4367
754.308	4299
755.063	4261
755.818	4199
756.573	4128
757.328	4072
758.083	4024
758.837	3947
759.592	3900
760.347	3850
761.101	3793
761.855	3758
762.61	3665
763.364	3600
764.118	3541
764.872	3485
765.626	3416
766.38	3376
767.134	3325
767.888	3234
768.642	3183
769.396	3113
770.149	3055
770.903	3011
771.656	2957
772.409	2905
773.163	2846
773.916	2791
774.669	2747
775.422	2706
776.175	2642
776.928	2588
777.681	2551
778.434	2512
779.186	2470
779.939	2409
780.692	2378
781.444	2351
782.197	2294
782.949	2232
783.701	2204
784.453	2166
785.205	2122
785.957	2082
786.709	2071
787.461	2027
788.213	1985
788.965	1963
789.716	1904
790.468	1880
791.22	1856
791.971	1837
792.722	1811
793.474	1750
794.225	1731
794.976	1695
795.727	1655
796.478	1641
797.229	1624
797.98	1604
798.731	1550
799.481	1533
800.232	1481
800.982	1462
801.733	1435
802.483	1403
803.233	1370
803.984	1343
804.734	1319
805.484	1280
806.234	1273
806.984	1242
807.734	1211
808.484	1175
809.233	1156
809.983	1131
810.732	1098
811.482	1068
812.231	1070
812.981	1018
813.73	991
814.479	967
815.228	961
815.977	938
816.726	905
817.475	888
818.224	856
818.973	843
819.721	843
820.47	817
821.219	805
821.967	798
822.715	771
823.464	765
824.212	746
824.96	747
825.708	733
826.456	736
827.204	728
827.952	705
828.7	706
829.447	688
830.195	700
830.942	701
831.69	696
832.437	677
833.185	675
833.932	676
834.679	665
835.426	671
836.173	667
836.92	644
837.667	631
838.414	628
839.16	616
839.907	615
840.654	604
841.4	604
842.147	592
842.893	578
843.639	559
844.385	552
845.131	550
845.877	539
846.623	517
847.369	511
848.115	498
848.861	474
849.607	471
850.352	461
851.098	459
851.843	456
852.588	434
853.334	418
854.079	412
854.824	408
855.569	394
856.314	401
857.059	384
857.804	378
858.549	375
859.293	361
860.038	360
860.783	362
861.527	355
862.271	354
863.016	343
863.76	337
864.504	335
865.248	340
865.992	329
866.736	345
867.48	335
868.224	326
868.968	326
869.711	322
870.455	316
871.198	323
871.942	322
872.685	325
873.428	316
874.171	314
874.915	314
875.658	305
876.401	312
877.143	299
877.886	303
878.629	296
879.372	296
880.114	291
880.857	296
881.599	291
882.342	288
883.084	289
883.826	283
884.568	295
885.31	294
886.052	292
886.794	279
887.536	293
888.278	290
889.019	282
889.761	298
890.503	300
891.244	293
891.985	288
892.727	291
893.468	288
894.209	293
894.95	288
895.691	290
896.432	293
897.173	284
897.914	286
898.654	285
899.395	285
900.136	283
900.876	290
901.617	278
902.357	287
903.097	280
903.837	282
904.577	278
905.317	271
906.057	271
906.797	270
907.537	271
908.277	269
909.016	264
909.756	255
910.496	249
911.235	249
911.974	244
912.714	245
913.453	240
914.192	243
914.931	230
915.67	220
916.409	221
917.148	212
917.886	211
918.625	209
919.364	205
920.102	205
920.841	192
921.579	193
922.317	184
923.055	179
923.794	175
924.532	173
925.27	166
926.008	161
926.745	152
927.483	149
928.221	152
928.958	144
929.696	136
930.433	132
931.171	127
931.908	122
932.645	112
933.383	109
934.12	107
934.857	99
935.594	96
936.33	86
937.067	84
937.804	79
938.541	71
939.277	73
940.014	68
940.75	66
941.486	64
942.223	58
942.959	60
943.695	58
944.431	56
945.167	54
945.903	53
946.638	54
947.374	50
948.11	51
948.845	48
949.581	52
950.316	45
951.052	46
951.787	46
952.522	40
953.257	41
953.992	41
954.727	44
955.462	44
956.197	40
956.932	43
957.666	35
958.401	40
959.135	41
959.87	39
960.604	38
961.339	34
962.073	37
962.807	35
963.541	39
964.275	39
965.009	39
965.743	38
966.476	38
967.21	41
967.944	38
968.677	39
969.411	37
970.144	39
970.877	41
971.611	37
972.344	44
973.077	38
973.81	42
974.543	39
975.276	39
976.008	40
976.741	43
977.474	43
978.206	37
978.939	40
979.671	41
980.403	38
981.136	43
981.868	42
982.6	43
983.332	44
984.064	44
984.796	43
985.527	46
986.259	47
986.991	3
987.722	0
988.454	-1
989.185	-1
989.917	29
990.648	30
991.379	33
992.11	33
992.841	32
993.572	33
994.303	42
995.034	46
995.764	45
996.495	46
997.226	51
997.956	47
998.687	1
999.417	-1
1000.147	-1
1000.877	0
