Data from FLMS155811_12-25-17-503.txt Node
Date: Mon Mar 23 12:25:17 MDT 2020
User: ECEn Student
Spectrometer: FLMS15581
Trigger mode: 0
Integration Time (sec): 1.400000E-1
Scans to average: 1
Electric dark correction enabled: true
Nonlinearity correction enabled: false
Boxcar width: 0
XAxis mode: Wavelengths
Number of Pixels in Spectrum: 2048
>>>>>Begin Spectral Data<<<<<
298.026	-20.23
298.106	-20.23
298.185	-20.23
298.265	-89.11
298.344	-47.79
298.424	-93.71
298.503	-47.79
298.583	-84.52
298.662	-63.86
298.741	-75.34
298.821	-38.6
298.9	-20.23
298.98	7.32
299.059	-29.42
299.138	-20.23
299.217	108.34
299.297	25.69
299.376	53.24
299.455	57.83
299.535	117.53
299.614	103.75
299.693	99.16
299.772	140.49
299.852	133.6
299.931	241.51
300.01	257.58
300.089	213.96
300.168	234.62
300.247	220.85
300.327	280.54
300.406	269.06
300.485	289.73
300.564	262.18
300.643	333.35
300.722	308.1
300.801	390.75
300.88	326.46
300.959	326.46
301.038	354.02
301.117	372.38
301.196	395.34
301.275	363.2
301.354	367.79
301.433	358.61
301.512	386.16
301.591	351.72
301.67	367.79
301.749	374.68
301.828	351.72
301.907	370.09
301.985	372.38
302.064	461.93
302.143	342.54
302.222	367.79
302.301	363.2
302.38	381.57
302.458	390.75
302.537	363.2
302.616	416.01
302.695	308.1
302.773	390.75
302.852	390.75
302.931	404.53
303.01	381.57
303.088	331.06
303.167	399.94
303.246	459.63
303.324	347.13
303.403	326.46
303.481	314.98
303.56	390.75
303.639	374.68
303.717	337.94
303.796	344.83
303.874	326.46
303.953	376.98
304.032	370.09
304.11	397.64
304.189	386.16
304.267	381.57
304.346	351.72
304.424	308.1
304.502	317.28
304.581	333.35
304.659	303.5
304.738	335.65
304.816	312.69
304.895	367.79
304.973	312.69
305.051	370.09
305.13	399.94
305.208	328.76
305.286	383.86
305.365	374.68
305.443	367.79
305.521	344.83
305.6	411.42
305.678	360.9
305.756	370.09
305.834	360.9
305.913	317.28
305.991	388.46
306.069	363.2
306.147	294.32
306.225	390.75
306.304	335.65
306.382	331.06
306.46	262.18
306.538	328.76
306.616	354.02
306.694	312.69
306.772	319.58
306.85	340.24
306.929	342.54
307.007	340.24
307.085	393.05
307.163	379.27
307.241	347.13
307.319	335.65
307.397	301.21
307.475	314.98
307.553	386.16
307.631	324.17
307.709	354.02
307.786	305.8
307.864	321.87
307.942	388.46
308.02	381.57
308.098	372.38
308.176	390.75
308.254	402.23
308.332	413.71
308.409	395.34
308.487	427.49
308.565	312.69
308.643	356.31
308.721	370.09
308.798	379.27
308.876	381.57
308.954	333.35
309.032	356.31
309.109	340.24
309.187	376.98
309.265	349.42
309.342	367.79
309.42	351.72
309.498	328.76
309.575	383.86
309.653	370.09
309.731	388.46
309.808	349.42
309.886	388.46
309.963	393.05
310.041	367.79
310.119	386.16
310.196	337.94
310.274	326.46
310.351	416.01
310.429	370.09
310.506	328.76
310.584	365.5
310.661	399.94
310.738	395.34
310.816	367.79
310.893	429.78
310.971	388.46
311.048	409.12
311.126	402.23
311.203	379.27
311.28	342.54
311.358	363.2
311.435	367.79
311.512	388.46
311.59	363.2
311.667	349.42
311.744	363.2
311.821	374.68
311.899	372.38
311.976	404.53
312.053	356.31
312.13	404.53
312.208	402.23
312.285	413.71
312.362	425.19
312.439	333.35
312.516	360.9
312.593	393.05
312.671	438.97
312.748	358.61
312.825	390.75
312.902	436.67
312.979	351.72
313.056	310.39
313.133	420.6
313.21	363.2
313.287	418.3
313.364	372.38
313.441	425.19
313.518	374.68
313.595	340.24
313.672	413.71
313.749	381.57
313.826	432.08
313.903	360.9
313.98	360.9
314.057	393.05
314.134	312.69
314.211	420.6
314.287	331.06
314.364	358.61
314.441	420.6
314.518	374.68
314.595	402.23
314.672	365.5
314.748	347.13
314.825	365.5
314.902	388.46
314.979	402.23
315.055	374.68
315.132	379.27
315.209	383.86
315.286	358.61
315.362	429.78
315.439	347.13
315.516	390.75
315.592	402.23
315.669	406.82
315.746	416.01
315.822	393.05
315.899	422.9
315.975	452.74
316.052	298.91
316.128	409.12
316.205	351.72
316.282	388.46
316.358	427.49
316.435	445.86
316.511	390.75
316.588	413.71
316.664	399.94
316.741	409.12
316.817	418.3
316.893	335.65
316.97	416.01
317.046	413.71
317.123	372.38
317.199	422.9
317.275	427.49
317.352	422.9
317.428	342.54
317.504	409.12
317.581	365.5
317.657	399.94
317.733	420.6
317.81	367.79
317.886	363.2
317.962	324.17
318.038	344.83
318.115	379.27
318.191	406.82
318.267	376.98
318.343	409.12
318.419	335.65
318.496	395.34
318.572	436.67
318.648	425.19
318.724	413.71
318.8	381.57
318.876	374.68
318.952	422.9
319.028	404.53
319.105	402.23
319.181	409.12
319.257	342.54
319.333	342.54
319.409	393.05
319.485	351.72
319.561	418.3
319.637	505.55
319.713	367.79
319.789	360.9
319.865	399.94
319.94	404.53
320.016	388.46
320.092	351.72
320.168	399.94
320.244	372.38
320.32	397.64
320.396	390.75
320.472	418.3
320.547	349.42
320.623	427.49
320.699	450.45
320.775	335.65
320.851	376.98
320.926	356.31
321.002	404.53
321.078	365.5
321.154	363.2
321.229	360.9
321.305	416.01
321.381	438.97
321.456	388.46
321.532	358.61
321.608	326.46
321.683	427.49
321.759	489.48
321.835	321.87
321.91	360.9
321.986	418.3
322.061	381.57
322.137	363.2
322.212	420.6
322.288	344.83
322.364	386.16
322.439	413.71
322.515	413.71
322.59	452.74
322.666	450.45
322.741	425.19
322.816	402.23
322.892	393.05
322.967	404.53
323.043	438.97
323.118	455.04
323.193	365.5
323.269	383.86
323.344	370.09
323.42	347.13
323.495	422.9
323.57	480.3
323.646	416.01
323.721	404.53
323.796	360.9
323.871	374.68
323.947	445.86
324.022	404.53
324.097	397.64
324.172	395.34
324.248	356.31
324.323	372.38
324.398	429.78
324.473	349.42
324.548	333.35
324.623	429.78
324.699	436.67
324.774	393.05
324.849	360.9
324.924	354.02
324.999	443.56
325.074	418.3
325.149	370.09
325.224	418.3
325.299	450.45
325.374	381.57
325.449	372.38
325.524	413.71
325.599	376.98
325.674	393.05
325.749	404.53
325.824	422.9
325.899	406.82
325.974	360.9
326.049	406.82
326.124	434.38
326.199	471.11
326.273	399.94
326.348	395.34
326.423	441.26
326.498	422.9
326.573	372.38
326.648	349.42
326.722	379.27
326.797	452.74
326.872	461.93
326.947	459.63
327.021	406.82
327.096	372.38
327.171	399.94
327.245	395.34
327.32	383.86
327.395	427.49
327.47	363.2
327.544	422.9
327.619	411.42
327.693	393.05
327.768	427.49
327.843	409.12
327.917	388.46
327.992	383.86
328.066	393.05
328.141	432.08
328.215	386.16
328.29	363.2
328.364	383.86
328.439	434.38
328.513	457.34
328.588	466.52
328.662	427.49
328.737	425.19
328.811	413.71
328.886	429.78
328.96	356.31
329.035	381.57
329.109	413.71
329.183	461.93
329.258	448.15
329.332	420.6
329.406	422.9
329.481	420.6
329.555	340.24
329.629	448.15
329.704	420.6
329.778	503.26
329.852	416.01
329.926	411.42
330.001	388.46
330.075	402.23
330.149	438.97
330.223	372.38
330.297	397.64
330.372	358.61
330.446	370.09
330.52	402.23
330.594	404.53
330.668	349.42
330.742	406.82
330.816	432.08
330.89	374.68
330.964	370.09
331.038	420.6
331.113	418.3
331.187	443.56
331.261	379.27
331.335	418.3
331.409	379.27
331.483	468.82
331.557	464.22
331.63	478
331.704	386.16
331.778	427.49
331.852	360.9
331.926	450.45
332	416.01
332.074	452.74
332.148	395.34
332.222	363.2
332.295	411.42
332.369	358.61
332.443	510.14
332.517	370.09
332.591	409.12
332.665	360.9
332.738	411.42
332.812	409.12
332.886	459.63
332.959	399.94
333.033	390.75
333.107	356.31
333.181	372.38
333.254	383.86
333.328	409.12
333.402	427.49
333.475	374.68
333.549	409.12
333.622	360.9
333.696	427.49
333.77	455.04
333.843	461.93
333.917	450.45
333.99	427.49
334.064	381.57
334.137	422.9
334.211	413.71
334.284	452.74
334.358	422.9
334.431	473.41
334.505	365.5
334.578	411.42
334.652	399.94
334.725	461.93
334.799	445.86
334.872	374.68
334.945	356.31
335.019	445.86
335.092	409.12
335.165	455.04
335.239	416.01
335.312	429.78
335.385	409.12
335.459	363.2
335.532	432.08
335.605	399.94
335.678	471.11
335.752	409.12
335.825	358.61
335.898	379.27
335.971	445.86
336.045	422.9
336.118	404.53
336.191	360.9
336.264	409.12
336.337	376.98
336.41	429.78
336.483	383.86
336.557	432.08
336.63	427.49
336.703	337.94
336.776	448.15
336.849	388.46
336.922	429.78
336.995	436.67
337.068	370.09
337.141	406.82
337.214	418.3
337.287	461.93
337.36	432.08
337.433	487.18
337.506	381.57
337.579	381.57
337.652	436.67
337.725	448.15
337.797	379.27
337.87	468.82
337.943	399.94
338.016	432.08
338.089	411.42
338.162	427.49
338.235	411.42
338.307	445.86
338.38	351.72
338.453	452.74
338.526	390.75
338.598	448.15
338.671	445.86
338.744	441.26
338.817	445.86
338.889	381.57
338.962	383.86
339.035	395.34
339.107	379.27
339.18	450.45
339.253	395.34
339.325	438.97
339.398	471.11
339.47	413.71
339.543	402.23
339.616	402.23
339.688	452.74
339.761	455.04
339.833	461.93
339.906	383.86
339.978	416.01
340.051	395.34
340.123	436.67
340.196	441.26
340.268	443.56
340.341	367.79
340.413	411.42
340.485	418.3
340.558	443.56
340.63	376.98
340.703	434.38
340.775	425.19
340.847	390.75
340.92	468.82
340.992	420.6
341.064	491.78
341.137	381.57
341.209	404.53
341.281	448.15
341.354	420.6
341.426	413.71
341.498	441.26
341.57	443.56
341.643	402.23
341.715	420.6
341.787	411.42
341.859	475.7
341.931	404.53
342.003	379.27
342.076	397.64
342.148	365.5
342.22	425.19
342.292	471.11
342.364	473.41
342.436	450.45
342.508	411.42
342.58	413.71
342.652	464.22
342.724	514.74
342.796	452.74
342.868	383.86
342.94	402.23
343.012	464.22
343.084	443.56
343.156	478
343.228	425.19
343.3	471.11
343.372	450.45
343.444	418.3
343.516	370.09
343.588	422.9
343.66	496.37
343.731	452.74
343.803	418.3
343.875	455.04
343.947	457.34
344.019	448.15
344.09	487.18
344.162	459.63
344.234	422.9
344.306	434.38
344.377	420.6
344.449	429.78
344.521	489.48
344.593	370.09
344.664	441.26
344.736	443.56
344.808	443.56
344.879	482.59
344.951	491.78
345.023	443.56
345.094	491.78
345.166	455.04
345.237	441.26
345.309	436.67
345.38	441.26
345.452	404.53
345.524	487.18
345.595	374.68
345.667	441.26
345.738	461.93
345.81	471.11
345.881	438.97
345.953	434.38
346.024	471.11
346.095	464.22
346.167	367.79
346.238	425.19
346.31	445.86
346.381	381.57
346.452	468.82
346.524	379.27
346.595	464.22
346.666	381.57
346.738	436.67
346.809	438.97
346.88	418.3
346.952	404.53
347.023	418.3
347.094	450.45
347.165	434.38
347.237	427.49
347.308	448.15
347.379	432.08
347.45	498.66
347.521	455.04
347.593	436.67
347.664	429.78
347.735	484.89
347.806	436.67
347.877	436.67
347.948	432.08
348.019	484.89
348.09	480.3
348.161	491.78
348.233	523.92
348.304	507.85
348.375	494.07
348.446	473.41
348.517	505.55
348.588	475.7
348.659	496.37
348.73	402.23
348.801	418.3
348.871	452.74
348.942	475.7
349.013	461.93
349.084	457.34
349.155	468.82
349.226	496.37
349.297	457.34
349.368	500.96
349.439	494.07
349.509	489.48
349.58	448.15
349.651	443.56
349.722	496.37
349.793	507.85
349.863	418.3
349.934	475.7
350.005	413.71
350.076	438.97
350.146	436.67
350.217	533.1
350.288	489.48
350.358	521.62
350.429	512.44
350.5	500.96
350.57	480.3
350.641	542.29
350.711	489.48
350.782	539.99
350.853	556.06
350.923	514.74
350.994	471.11
351.064	450.45
351.135	503.26
351.205	459.63
351.276	549.18
351.346	505.55
351.417	590.5
351.487	553.77
351.558	521.62
351.628	631.83
351.699	558.36
351.769	629.54
351.84	579.02
351.91	576.73
351.98	654.79
352.051	608.87
352.121	698.42
352.191	654.79
352.262	682.35
352.332	606.58
352.402	698.42
352.473	686.94
352.543	707.6
352.613	716.79
352.683	728.27
352.754	797.15
352.824	783.37
352.894	746.63
352.964	797.15
353.035	882.1
353.105	948.68
353.175	845.36
353.245	909.65
353.315	953.27
353.385	1049.71
353.455	1052
353.526	1068.07
353.596	1109.4
353.666	1104.81
353.736	1235.68
353.806	1198.95
353.876	1235.68
353.946	1210.43
354.016	1378.04
354.086	1336.71
354.156	1437.73
354.226	1442.32
354.296	1508.91
354.366	1605.34
354.436	1685.7
354.506	1731.62
354.576	1706.37
354.645	1851.01
354.715	1894.64
354.785	1970.41
354.855	2103.58
354.925	2073.73
354.995	2287.26
355.065	2241.34
355.134	2397.46
355.204	2464.05
355.274	2565.07
355.344	2597.22
355.414	2776.31
355.483	2725.79
355.553	2884.22
355.623	3044.94
355.693	3258.47
355.762	3375.56
355.832	3364.08
355.902	3589.09
355.971	3719.97
356.041	3657.97
356.111	3935.79
356.18	4036.82
356.25	4328.41
356.319	4305.45
356.389	4665.92
356.459	4721.03
356.528	4803.68
356.598	4991.96
356.667	5237.63
356.737	5187.12
356.806	5572.85
356.876	5586.62
356.945	5974.65
357.015	5988.42
357.084	6247.87
357.154	6275.42
357.223	6608.35
357.292	6980.3
357.362	7120.36
357.431	7287.96
357.501	7678.29
357.57	7774.72
357.639	7712.73
357.709	8321.17
357.778	8463.52
357.847	8520.92
357.917	9000.79
357.986	9062.78
358.055	9425.55
358.124	9799.8
358.194	9981.18
358.263	10343.95
358.332	10899.59
358.401	10915.66
358.471	11340.42
358.54	11565.43
358.609	11815.7
358.678	12226.68
358.747	12444.8
358.816	12745.58
358.886	13165.75
358.955	13386.17
359.024	13882.1
359.093	14228.8
359.162	14692.6
359.231	14938.27
359.3	15627.07
359.369	15535.23
359.438	16095.46
359.507	16226.33
359.576	16871.51
359.645	17096.52
359.714	17601.64
359.783	17766.95
359.852	18251.41
359.921	18889.7
359.99	19176.7
360.059	19736.93
360.128	20283.38
360.197	20737.99
360.266	21351.02
360.334	21598.99
360.403	22329.12
360.472	22831.95
360.541	23426.62
360.61	23578.15
360.679	24115.42
360.747	24811.11
360.816	24937.39
360.885	25906.31
360.954	26354.03
361.022	27192.07
361.091	27818.88
361.16	27676.53
361.228	28386
361.297	28792.39
361.366	29740.64
361.434	29855.44
361.503	30978.19
361.572	31453.47
361.64	32482.08
361.709	32801.22
361.778	33230.58
361.846	33758.66
361.915	34594.41
361.983	35223.51
362.052	36511.57
362.12	36511.57
362.189	37253.19
362.257	38359.86
362.326	39000.45
362.394	39294.34
362.463	39735.17
362.531	40786.74
362.6	41183.95
362.668	42049.55
362.737	42508.75
362.805	43261.84
362.873	43479.96
362.942	44455.77
363.01	44621.08
363.079	45571.63
363.147	46503.81
363.215	46921.68
363.284	47500.28
363.352	48000.81
363.42	48912.32
363.488	49056.97
363.557	49803.17
363.625	50225.64
363.693	50636.62
363.761	51566.51
363.83	51509.11
363.898	52232.35
363.966	52494.1
364.034	53240.3
364.102	53233.41
364.171	53621.44
364.239	54259.73
364.307	54868.17
364.375	54601.83
364.443	55375.59
364.511	55393.96
364.579	55791.17
364.647	56192.97
364.715	56555.74
364.783	56532.78
364.851	56991.98
364.919	57191.73
364.987	57198.62
365.055	57646.34
365.123	58075.7
365.191	58139.98
365.259	58277.74
365.327	58528.01
365.395	58780.57
365.463	58939
365.531	59035.43
365.599	59186.96
365.667	59538.25
365.735	59453.3
365.802	59655.35
365.87	59919.39
365.938	60064.04
366.006	60103.07
366.074	60394.67
366.142	60270.68
366.209	60183.43
366.277	60557.68
366.345	60408.44
366.413	60759.73
366.48	60863.05
366.548	60741.36
366.616	60819.43
366.683	60945.71
366.751	61209.75
366.819	61117.91
366.886	61159.24
366.954	61216.64
367.022	61186.79
367.089	60993.92
367.157	61099.54
367.224	61028.36
367.292	61078.88
367.36	61138.57
367.427	61147.76
367.495	60902.08
367.562	61200.56
367.63	60890.6
367.697	60980.15
367.765	61076.58
367.832	60904.38
367.9	60874.53
367.967	60654.11
368.034	60621.97
368.102	60697.74
368.169	60683.96
368.237	60656.41
368.304	60670.19
368.371	60511.76
368.439	60456.66
368.506	60220.17
368.573	60344.15
368.641	60162.77
368.708	60236.24
368.775	59744.89
368.843	59845.92
368.91	59636.98
368.977	59680.61
369.044	59772.45
369.112	59526.77
369.179	59338.5
369.246	59090.53
369.313	59191.56
369.38	58998.69
369.448	59003.28
369.515	58528.01
369.582	58601.48
369.649	58257.08
369.716	58261.67
369.783	58479.79
369.85	58353.51
369.917	58050.44
369.984	57919.57
370.052	57765.73
370.119	57864.46
370.186	58009.11
370.253	57503.99
370.32	57630.27
370.387	57710.63
370.454	57350.16
370.521	57515.47
370.587	57340.97
370.654	57196.32
370.721	56966.72
370.788	56730.23
370.855	56440.94
370.922	56519
370.989	56218.22
371.056	56291.7
371.123	55860.05
371.189	55862.34
371.256	55432.99
371.323	55260.79
371.39	54732.71
371.457	54365.34
371.523	53814.3
371.59	53384.95
371.657	52994.63
371.724	52542.31
371.79	51936.17
371.857	50751.43
371.924	49853.69
371.991	48786.04
372.057	47406.14
372.124	46285.69
372.191	44687.66
372.257	43064.39
372.324	41757.96
372.39	39889
372.457	37762.9
372.524	36031.71
372.59	34217.86
372.657	32174.41
372.723	30482.25
372.79	28450.28
372.856	26620.36
372.923	25437.92
372.989	23107.47
373.056	21865.33
373.122	19922.91
373.189	18680.76
373.255	17323.82
373.322	15978.36
373.388	14508.91
373.454	13634.14
373.521	12676.7
373.587	11462.11
373.654	10454.16
373.72	10050.06
373.786	9198.24
373.853	8532.4
373.919	7919.37
373.985	7430.32
374.052	6686.41
374.118	6218.02
374.184	5738.16
374.25	5423.61
374.317	4989.66
374.383	4567.19
374.449	4291.67
374.515	4085.03
374.581	3765.89
374.648	3531.69
374.714	3279.13
374.78	3077.08
374.846	2785.49
374.912	2739.57
374.978	2553.59
375.044	2445.68
375.11	2326.29
375.177	2163.27
375.243	2085.21
375.309	1963.52
375.375	1841.83
375.441	1754.58
375.507	1740.81
375.573	1577.79
375.639	1472.17
375.705	1515.8
375.771	1403.29
375.837	1359.67
375.903	1325.23
375.968	1341.3
376.034	1164.51
376.1	1150.73
376.166	1123.18
376.232	1208.13
376.298	1031.34
376.364	999.19
376.43	978.53
376.495	923.43
376.561	932.61
376.627	1047.41
376.693	870.62
376.759	845.36
376.824	822.4
376.89	822.4
376.956	852.25
377.022	833.88
377.087	769.59
377.153	753.52
377.219	730.56
377.284	714.49
377.35	742.04
377.416	746.63
377.481	691.53
377.547	748.93
377.613	622.65
377.678	622.65
377.744	712.19
377.809	698.42
377.875	638.72
377.94	673.16
378.006	696.12
378.071	560.66
378.137	659.39
378.202	606.58
378.268	560.66
378.333	631.83
378.399	590.5
378.464	659.39
378.53	576.73
378.595	590.5
378.661	604.28
378.726	556.06
378.791	572.14
378.857	581.32
378.922	551.47
378.987	530.81
379.053	597.39
379.118	542.29
379.183	601.98
379.249	535.4
379.314	539.99
379.379	553.77
379.444	498.66
379.51	569.84
379.575	496.37
379.64	489.48
379.705	519.33
379.771	546.88
379.836	585.91
379.901	553.77
379.966	592.8
380.031	537.7
380.096	500.96
380.161	494.07
380.227	482.59
380.292	542.29
380.357	514.74
380.422	441.26
380.487	503.26
380.552	445.86
380.617	466.52
380.682	503.26
380.747	471.11
380.812	489.48
380.877	445.86
380.942	471.11
381.007	530.81
381.072	445.86
381.137	487.18
381.202	514.74
381.266	422.9
381.331	397.64
381.396	500.96
381.461	466.52
381.526	461.93
381.591	466.52
381.656	473.41
381.72	478
381.785	416.01
381.85	468.82
381.915	489.48
381.979	450.45
382.044	461.93
382.109	491.78
382.174	443.56
382.238	487.18
382.303	484.89
382.368	399.94
382.432	514.74
382.497	482.59
382.562	503.26
382.626	461.93
382.691	487.18
382.756	393.05
382.82	468.82
382.885	498.66
382.949	491.78
383.014	402.23
383.078	438.97
383.143	438.97
383.208	523.92
383.272	487.18
383.337	429.78
383.401	457.34
383.465	475.7
383.53	434.38
383.594	466.52
383.659	475.7
383.723	448.15
383.788	461.93
383.852	436.67
383.916	494.07
383.981	411.42
384.045	438.97
384.109	450.45
384.174	445.86
384.238	466.52
384.302	448.15
384.367	466.52
384.431	480.3
384.495	478
384.56	457.34
384.624	370.09
384.688	452.74
384.752	455.04
384.816	416.01
384.881	434.38
384.945	487.18
385.009	464.22
385.073	491.78
385.137	496.37
385.201	450.45
385.265	402.23
385.33	473.41
385.394	478
385.458	429.78
385.522	416.01
385.586	475.7
385.65	418.3
385.714	333.35
385.778	411.42
385.842	468.82
385.906	471.11
385.97	363.2
386.034	399.94
386.098	411.42
386.162	503.26
386.226	409.12
386.29	418.3
386.354	450.45
386.417	489.48
386.481	406.82
386.545	473.41
386.609	468.82
386.673	466.52
386.737	487.18
386.8	445.86
386.864	455.04
386.928	425.19
386.992	461.93
387.056	383.86
387.119	473.41
387.183	455.04
387.247	441.26
387.31	418.3
387.374	475.7
387.438	432.08
387.502	386.16
387.565	457.34
387.629	445.86
387.692	429.78
387.756	443.56
387.82	434.38
387.883	443.56
387.947	450.45
388.01	420.6
388.074	459.63
388.138	478
388.201	468.82
388.265	558.36
388.328	402.23
388.392	443.56
388.455	475.7
388.519	443.56
388.582	461.93
388.645	425.19
388.709	372.38
388.772	429.78
388.836	482.59
388.899	432.08
388.962	436.67
389.026	413.71
389.089	379.27
389.153	450.45
389.216	434.38
389.279	413.71
389.343	429.78
389.406	422.9
389.469	448.15
389.532	335.65
389.596	461.93
389.659	379.27
389.722	416.01
389.785	457.34
389.848	335.65
389.912	413.71
389.975	436.67
390.038	459.63
390.101	416.01
390.164	413.71
390.227	434.38
390.291	404.53
390.354	411.42
390.417	450.45
390.48	411.42
390.543	386.16
390.606	383.86
390.669	365.5
390.732	443.56
390.795	429.78
390.858	434.38
390.921	337.94
390.984	420.6
391.047	404.53
391.11	406.82
391.173	413.71
391.236	461.93
391.299	438.97
391.362	420.6
391.424	358.61
391.487	429.78
391.55	349.42
391.613	503.26
391.676	438.97
391.739	434.38
391.802	420.6
391.864	406.82
391.927	489.48
391.99	406.82
392.053	354.02
392.115	448.15
392.178	381.57
392.241	413.71
392.304	514.74
392.366	390.75
392.429	420.6
392.492	376.98
392.554	360.9
392.617	411.42
392.68	386.16
392.742	397.64
392.805	402.23
392.867	436.67
392.93	443.56
392.992	489.48
393.055	436.67
393.118	420.6
393.18	335.65
393.243	468.82
393.305	381.57
393.368	404.53
393.43	388.46
393.493	422.9
393.555	434.38
393.618	459.63
393.68	406.82
393.742	455.04
393.805	406.82
393.867	418.3
393.93	434.38
393.992	427.49
394.054	436.67
394.117	372.38
394.179	418.3
394.241	432.08
394.304	409.12
394.366	349.42
394.428	473.41
394.49	367.79
394.553	443.56
394.615	441.26
394.677	374.68
394.739	450.45
394.802	411.42
394.864	413.71
394.926	429.78
394.988	438.97
395.05	429.78
395.112	370.09
395.174	420.6
395.237	397.64
395.299	388.46
395.361	370.09
395.423	372.38
395.485	434.38
395.547	464.22
395.609	349.42
395.671	326.46
395.733	441.26
395.795	422.9
395.857	395.34
395.919	356.31
395.981	450.45
396.043	388.46
396.105	457.34
396.167	379.27
396.229	370.09
396.291	471.11
396.352	363.2
396.414	416.01
396.476	459.63
396.538	372.38
396.6	450.45
396.662	409.12
396.724	376.98
396.785	416.01
396.847	399.94
396.909	425.19
396.971	432.08
397.032	360.9
397.094	422.9
397.156	409.12
397.218	395.34
397.279	443.56
397.341	372.38
397.403	383.86
397.464	418.3
397.526	466.52
397.588	372.38
397.649	395.34
397.711	360.9
397.772	418.3
397.834	420.6
397.896	445.86
397.957	420.6
398.019	349.42
398.08	450.45
398.142	365.5
398.203	418.3
398.265	347.13
398.326	393.05
398.388	443.56
398.449	420.6
398.511	376.98
398.572	365.5
398.633	383.86
398.695	399.94
398.756	461.93
398.818	360.9
398.879	393.05
398.94	429.78
399.002	413.71
399.063	367.79
399.124	409.12
399.186	342.54
399.247	397.64
399.308	337.94
399.369	342.54
399.431	413.71
399.492	390.75
399.553	413.71
399.614	379.27
399.676	418.3
399.737	397.64
399.798	335.65
399.859	425.19
399.92	340.24
399.981	427.49
400.042	367.79
400.104	441.26
400.165	404.53
400.226	402.23
400.287	376.98
400.348	365.5
400.409	388.46
400.47	411.42
400.531	383.86
400.592	420.6
400.653	365.5
400.714	390.75
400.775	383.86
400.836	411.42
400.897	411.42
400.958	383.86
401.019	436.67
401.08	347.13
401.141	370.09
401.201	397.64
401.262	429.78
401.323	409.12
401.384	374.68
401.445	399.94
401.506	376.98
401.567	471.11
401.627	381.57
401.688	425.19
401.749	413.71
401.81	397.64
401.87	354.02
401.931	441.26
401.992	427.49
402.053	411.42
402.113	390.75
402.174	399.94
402.235	393.05
402.295	372.38
402.356	356.31
402.417	372.38
402.477	404.53
402.538	370.09
402.598	418.3
402.659	379.27
402.719	376.98
402.78	383.86
402.841	358.61
402.901	386.16
402.962	436.67
403.022	411.42
403.083	402.23
403.143	443.56
403.204	379.27
403.264	418.3
403.324	379.27
403.385	374.68
403.445	358.61
403.506	399.94
403.566	399.94
403.627	445.86
403.687	365.5
403.747	475.7
403.808	358.61
403.868	386.16
403.928	372.38
403.989	429.78
404.049	365.5
404.109	356.31
404.169	393.05
404.23	363.2
404.29	393.05
404.35	360.9
404.41	342.54
404.47	388.46
404.531	367.79
404.591	411.42
404.651	363.2
404.711	395.34
404.771	376.98
404.831	416.01
404.892	494.07
404.952	358.61
405.012	365.5
405.072	402.23
405.132	422.9
405.192	351.72
405.252	328.76
405.312	397.64
405.372	406.82
405.432	374.68
405.492	445.86
405.552	429.78
405.612	427.49
405.672	413.71
405.732	416.01
405.792	340.24
405.852	383.86
405.912	395.34
405.971	324.17
406.031	317.28
406.091	314.98
406.151	324.17
406.211	416.01
406.271	381.57
406.33	413.71
406.39	409.12
406.45	409.12
406.51	422.9
406.57	399.94
406.629	383.86
406.689	409.12
406.749	418.3
406.808	397.64
406.868	395.34
406.928	411.42
406.988	340.24
407.047	413.71
407.107	413.71
407.166	370.09
407.226	402.23
407.286	374.68
407.345	383.86
407.405	420.6
407.464	455.04
407.524	397.64
407.584	360.9
407.643	374.68
407.703	370.09
407.762	363.2
407.822	473.41
407.881	363.2
407.941	393.05
408	422.9
408.059	436.67
408.119	358.61
408.178	331.06
408.238	374.68
408.297	393.05
408.356	390.75
408.416	379.27
408.475	374.68
408.535	388.46
408.594	342.54
408.653	386.16
408.712	390.75
408.772	365.5
408.831	340.24
408.89	340.24
408.95	411.42
409.009	372.38
409.068	342.54
409.127	383.86
409.186	416.01
409.246	438.97
409.305	376.98
409.364	354.02
409.423	370.09
409.482	381.57
409.541	438.97
409.6	351.72
409.66	422.9
409.719	312.69
409.778	326.46
409.837	370.09
409.896	427.49
409.955	333.35
410.014	416.01
410.073	441.26
410.132	399.94
410.191	386.16
410.25	399.94
410.309	386.16
410.368	393.05
410.427	354.02
410.486	452.74
410.545	432.08
410.603	351.72
410.662	324.17
410.721	367.79
410.78	441.26
410.839	374.68
410.898	409.12
410.957	367.79
411.015	305.8
411.074	314.98
411.133	365.5
411.192	413.71
411.25	416.01
411.309	344.83
411.368	367.79
411.427	379.27
411.485	365.5
411.544	349.42
411.603	321.87
411.661	397.64
411.72	363.2
411.779	402.23
411.837	397.64
411.896	388.46
411.955	381.57
412.013	308.1
412.072	365.5
412.13	303.5
412.189	340.24
412.247	335.65
412.306	367.79
412.364	397.64
412.423	360.9
412.481	383.86
412.54	381.57
412.598	393.05
412.657	427.49
412.715	381.57
412.774	383.86
412.832	390.75
412.891	411.42
412.949	303.5
413.007	422.9
413.066	360.9
413.124	390.75
413.182	388.46
413.241	356.31
413.299	379.27
413.357	386.16
413.416	349.42
413.474	376.98
413.532	337.94
413.59	363.2
413.649	374.68
413.707	388.46
413.765	406.82
413.823	406.82
413.881	404.53
413.94	365.5
413.998	344.83
414.056	381.57
414.114	363.2
414.172	420.6
414.23	443.56
414.288	413.71
414.347	331.06
414.405	358.61
414.463	374.68
414.521	331.06
414.579	416.01
414.637	429.78
414.695	416.01
414.753	365.5
414.811	480.3
414.869	294.32
414.927	351.72
414.985	376.98
415.043	333.35
415.101	367.79
415.158	347.13
415.216	358.61
415.274	360.9
415.332	441.26
415.39	393.05
415.448	365.5
415.506	342.54
415.563	422.9
415.621	406.82
415.679	383.86
415.737	425.19
415.795	390.75
415.852	365.5
415.91	289.73
415.968	328.76
416.026	376.98
416.083	386.16
416.141	282.84
416.199	321.87
416.256	337.94
416.314	393.05
416.372	411.42
416.429	434.38
416.487	393.05
416.544	347.13
416.602	342.54
416.66	360.9
416.717	367.79
416.775	365.5
416.832	342.54
416.89	386.16
416.947	422.9
417.005	365.5
417.062	443.56
417.12	344.83
417.177	351.72
417.235	337.94
417.292	305.8
417.35	413.71
417.407	381.57
417.464	372.38
417.522	360.9
417.579	427.49
417.637	471.11
417.694	321.87
417.751	409.12
417.809	344.83
417.866	409.12
417.923	386.16
417.981	397.64
418.038	367.79
418.095	427.49
418.152	409.12
418.21	379.27
418.267	340.24
418.324	337.94
418.381	340.24
418.438	422.9
418.496	349.42
418.553	388.46
418.61	420.6
418.667	393.05
418.724	443.56
418.781	402.23
418.838	363.2
418.895	342.54
418.952	319.58
419.01	326.46
419.067	342.54
419.124	367.79
419.181	331.06
419.238	425.19
419.295	367.79
419.352	321.87
419.409	397.64
419.466	374.68
419.523	404.53
419.579	383.86
419.636	365.5
419.693	399.94
419.75	360.9
419.807	337.94
419.864	379.27
419.921	305.8
419.978	335.65
420.034	372.38
420.091	347.13
420.148	354.02
420.205	381.57
420.262	381.57
420.318	399.94
420.375	397.64
420.432	367.79
420.489	354.02
420.545	317.28
420.602	308.1
420.659	381.57
420.715	406.82
420.772	445.86
420.829	404.53
420.885	372.38
420.942	367.79
420.999	303.5
421.055	344.83
421.112	379.27
421.168	363.2
421.225	411.42
421.282	388.46
421.338	386.16
421.395	344.83
421.451	326.46
421.508	383.86
421.564	436.67
421.621	388.46
421.677	376.98
421.734	308.1
421.79	324.17
421.846	358.61
421.903	335.65
421.959	342.54
422.016	363.2
422.072	340.24
422.128	342.54
422.185	294.32
422.241	409.12
422.297	354.02
422.354	365.5
422.41	386.16
422.466	356.31
422.523	354.02
422.579	404.53
422.635	383.86
422.691	416.01
422.748	333.35
422.804	390.75
422.86	397.64
422.916	351.72
422.972	363.2
423.029	409.12
423.085	399.94
423.141	372.38
423.197	363.2
423.253	376.98
423.309	358.61
423.365	335.65
423.421	331.06
423.477	358.61
423.533	296.62
423.589	397.64
423.645	395.34
423.701	347.13
423.757	393.05
423.813	363.2
423.869	390.75
423.925	360.9
423.981	319.58
424.037	337.94
424.093	344.83
424.149	381.57
424.205	326.46
424.261	379.27
424.317	406.82
424.373	372.38
424.428	335.65
424.484	331.06
424.54	349.42
424.596	363.2
424.652	399.94
424.708	381.57
424.763	397.64
424.819	393.05
424.875	363.2
424.931	376.98
424.986	349.42
425.042	376.98
425.098	310.39
425.153	404.53
425.209	411.42
425.265	328.76
425.32	360.9
425.376	438.97
425.432	393.05
425.487	425.19
425.543	397.64
425.598	390.75
425.654	351.72
425.709	292.02
425.765	367.79
425.82	363.2
425.876	441.26
425.932	358.61
425.987	305.8
426.042	319.58
426.098	344.83
426.153	402.23
426.209	416.01
426.264	413.71
426.32	351.72
426.375	344.83
426.43	379.27
426.486	354.02
426.541	402.23
426.597	344.83
426.652	399.94
426.707	381.57
426.763	340.24
426.818	365.5
426.873	363.2
426.928	395.34
426.984	367.79
427.039	370.09
427.094	397.64
427.149	372.38
427.205	397.64
427.26	342.54
427.315	331.06
427.37	376.98
427.425	358.61
427.48	321.87
427.536	376.98
427.591	370.09
427.646	411.42
427.701	360.9
427.756	365.5
427.811	370.09
427.866	308.1
427.921	411.42
427.976	312.69
428.031	374.68
428.086	308.1
428.141	427.49
428.196	379.27
428.251	314.98
428.306	402.23
428.361	376.98
428.416	399.94
428.471	390.75
428.526	349.42
428.581	328.76
428.636	383.86
428.691	381.57
428.745	390.75
428.8	402.23
428.855	397.64
428.91	310.39
428.965	349.42
429.02	395.34
429.074	379.27
429.129	409.12
429.184	383.86
429.239	347.13
429.293	328.76
429.348	349.42
429.403	367.79
429.457	342.54
429.512	347.13
429.567	365.5
429.621	388.46
429.676	365.5
429.731	399.94
429.785	356.31
429.84	337.94
429.895	275.95
429.949	420.6
430.004	418.3
430.058	351.72
430.113	411.42
430.167	416.01
430.222	383.86
430.276	376.98
430.331	349.42
430.385	333.35
430.44	367.79
430.494	356.31
430.549	434.38
430.603	379.27
430.657	358.61
430.712	370.09
430.766	360.9
430.821	335.65
430.875	335.65
430.929	365.5
430.984	376.98
431.038	308.1
431.092	413.71
431.147	344.83
431.201	319.58
431.255	420.6
431.309	344.83
431.364	360.9
431.418	358.61
431.472	370.09
431.526	402.23
431.581	395.34
431.635	399.94
431.689	397.64
431.743	363.2
431.797	319.58
431.851	416.01
431.906	372.38
431.96	298.91
432.014	367.79
432.068	342.54
432.122	441.26
432.176	358.61
432.23	381.57
432.284	370.09
432.338	386.16
432.392	337.94
432.446	351.72
432.5	372.38
432.554	395.34
432.608	324.17
432.662	333.35
432.716	404.53
432.77	344.83
432.824	360.9
432.878	331.06
432.931	321.87
432.985	319.58
433.039	335.65
433.093	418.3
433.147	337.94
433.201	383.86
433.254	443.56
433.308	303.5
433.362	344.83
433.416	379.27
433.47	420.6
433.523	399.94
433.577	393.05
433.631	390.75
433.684	358.61
433.738	305.8
433.792	363.2
433.846	379.27
433.899	298.91
433.953	388.46
434.006	427.49
434.06	372.38
434.114	376.98
434.167	376.98
434.221	376.98
