Data from FLMS155811_12-25-25-065.txt Node
Date: Mon Mar 23 12:25:25 MDT 2020
User: ECEn Student
Spectrometer: FLMS15581
Trigger mode: 0
Integration Time (sec): 1.400000E-1
Scans to average: 1
Electric dark correction enabled: true
Nonlinearity correction enabled: false
Boxcar width: 0
XAxis mode: Wavelengths
Number of Pixels in Spectrum: 2048
>>>>>Begin Spectral Data<<<<<
298.026	-23.96
298.106	-23.96
298.185	-23.96
298.265	-63
298.344	-74.48
298.424	-102.03
298.503	-85.96
298.583	-33.15
298.662	-53.81
298.741	-49.22
298.821	1.29
298.9	-83.66
298.98	-37.74
299.059	-12.48
299.138	49.51
299.217	56.4
299.297	10.48
299.376	83.95
299.455	86.24
299.535	63.28
299.614	106.91
299.693	148.24
299.772	139.05
299.852	136.76
299.931	175.79
300.01	233.19
300.089	230.89
300.168	180.38
300.247	263.04
300.327	263.04
300.406	311.25
300.485	267.63
300.564	260.74
300.643	320.44
300.722	297.48
300.801	373.25
300.88	290.59
300.959	384.73
301.038	354.88
301.117	297.48
301.196	407.69
301.275	329.62
301.354	382.43
301.433	334.21
301.512	384.73
301.591	389.32
301.67	350.28
301.749	416.87
301.828	467.38
301.907	419.17
301.985	403.09
302.064	336.51
302.143	416.87
302.222	419.17
302.301	375.54
302.38	377.84
302.458	315.84
302.537	375.54
302.616	426.05
302.695	391.61
302.773	377.84
302.852	375.54
302.931	345.69
303.01	370.95
303.088	403.09
303.167	368.65
303.246	387.02
303.324	357.17
303.403	416.87
303.481	354.88
303.56	336.51
303.639	364.06
303.717	345.69
303.796	361.77
303.874	338.8
303.953	352.58
304.032	361.77
304.11	407.69
304.189	393.91
304.267	313.55
304.346	325.03
304.424	338.8
304.502	338.8
304.581	354.88
304.659	341.1
304.738	389.32
304.816	331.92
304.895	373.25
304.973	380.13
305.051	396.21
305.13	297.48
305.208	373.25
305.286	315.84
305.365	347.99
305.443	405.39
305.521	357.17
305.6	361.77
305.678	412.28
305.756	368.65
305.834	354.88
305.913	327.32
305.991	361.77
306.069	350.28
306.147	322.73
306.225	357.17
306.304	366.36
306.382	338.8
306.46	373.25
306.538	336.51
306.616	382.43
306.694	341.1
306.772	359.47
306.85	320.44
306.929	375.54
307.007	352.58
307.085	354.88
307.163	400.8
307.241	336.51
307.319	308.96
307.397	421.46
307.475	384.73
307.553	329.62
307.631	435.24
307.709	389.32
307.786	364.06
307.864	373.25
307.942	391.61
308.02	421.46
308.098	329.62
308.176	398.5
308.254	343.4
308.332	352.58
308.409	437.53
308.487	327.32
308.565	398.5
308.643	347.99
308.721	370.95
308.798	361.77
308.876	352.58
308.954	384.73
309.032	368.65
309.109	426.05
309.187	380.13
309.265	361.77
309.342	382.43
309.42	391.61
309.498	370.95
309.575	393.91
309.653	311.25
309.731	398.5
309.808	343.4
309.886	412.28
309.963	336.51
310.041	391.61
310.119	393.91
310.196	384.73
310.274	387.02
310.351	389.32
310.429	384.73
310.506	350.28
310.584	364.06
310.661	437.53
310.738	361.77
310.816	432.94
310.893	391.61
310.971	416.87
311.048	329.62
311.126	338.8
311.203	350.28
311.28	444.42
311.358	416.87
311.435	377.84
311.512	382.43
311.59	350.28
311.667	384.73
311.744	320.44
311.821	423.76
311.899	398.5
311.976	400.8
312.053	364.06
312.13	387.02
312.208	350.28
312.285	375.54
312.362	370.95
312.439	407.69
312.516	373.25
312.593	368.65
312.671	341.1
312.748	347.99
312.825	389.32
312.902	407.69
312.979	373.25
313.056	446.72
313.133	387.02
313.21	412.28
313.287	352.58
313.364	338.8
313.441	407.69
313.518	359.47
313.595	364.06
313.672	352.58
313.749	364.06
313.826	416.87
313.903	354.88
313.98	361.77
314.057	416.87
314.134	370.95
314.211	444.42
314.287	389.32
314.364	389.32
314.441	343.4
314.518	435.24
314.595	398.5
314.672	435.24
314.748	393.91
314.825	389.32
314.902	370.95
314.979	449.01
315.055	366.36
315.132	318.14
315.209	334.21
315.286	370.95
315.362	350.28
315.439	345.69
315.516	412.28
315.592	366.36
315.669	375.54
315.746	396.21
315.822	458.2
315.899	432.94
315.975	313.55
316.052	359.47
316.128	442.13
316.205	451.31
316.282	423.76
316.358	304.36
316.435	409.98
316.511	405.39
316.588	341.1
316.664	405.39
316.741	409.98
316.817	439.83
316.893	345.69
316.97	382.43
317.046	382.43
317.123	375.54
317.199	437.53
317.275	439.83
317.352	426.05
317.428	403.09
317.504	368.65
317.581	393.91
317.657	322.73
317.733	449.01
317.81	368.65
317.886	387.02
317.962	387.02
318.038	341.1
318.115	354.88
318.191	368.65
318.267	451.31
318.343	373.25
318.419	382.43
318.496	458.2
318.572	391.61
318.648	368.65
318.724	343.4
318.8	453.61
318.876	405.39
318.952	407.69
319.028	364.06
319.105	389.32
319.181	449.01
319.257	373.25
319.333	357.17
319.409	430.65
319.485	384.73
319.561	414.57
319.637	485.75
319.713	377.84
319.789	437.53
319.865	442.13
319.94	396.21
320.016	368.65
320.092	382.43
320.168	393.91
320.244	396.21
320.32	336.51
320.396	455.9
320.472	421.46
320.547	405.39
320.623	432.94
320.699	412.28
320.775	389.32
320.851	446.72
320.926	414.57
321.002	419.17
321.078	368.65
321.154	389.32
321.229	467.38
321.305	350.28
321.381	412.28
321.456	382.43
321.532	338.8
321.608	350.28
321.683	364.06
321.759	419.17
321.835	476.57
321.91	432.94
321.986	405.39
322.061	416.87
322.137	439.83
322.212	336.51
322.288	364.06
322.364	405.39
322.439	453.61
322.515	428.35
322.59	384.73
322.666	430.65
322.741	382.43
322.816	416.87
322.892	407.69
322.967	396.21
323.043	345.69
323.118	398.5
323.193	347.99
323.269	458.2
323.344	396.21
323.42	407.69
323.495	449.01
323.57	354.88
323.646	354.88
323.721	437.53
323.796	375.54
323.871	428.35
323.947	449.01
324.022	421.46
324.097	421.46
324.172	396.21
324.248	393.91
324.323	409.98
324.398	396.21
324.473	345.69
324.548	354.88
324.623	373.25
324.699	311.25
324.774	377.84
324.849	412.28
324.924	416.87
324.999	398.5
325.074	446.72
325.149	405.39
325.224	391.61
325.299	421.46
325.374	398.5
325.449	380.13
325.524	442.13
325.599	444.42
325.674	405.39
325.749	453.61
325.824	449.01
325.899	387.02
325.974	444.42
326.049	350.28
326.124	435.24
326.199	377.84
326.273	364.06
326.348	380.13
326.423	428.35
326.498	426.05
326.573	409.98
326.648	416.87
326.722	398.5
326.797	361.77
326.872	366.36
326.947	352.58
327.021	407.69
327.096	421.46
327.171	439.83
327.245	460.49
327.32	370.95
327.395	380.13
327.47	400.8
327.544	396.21
327.619	377.84
327.693	458.2
327.768	426.05
327.843	370.95
327.917	419.17
327.992	414.57
328.066	391.61
328.141	449.01
328.215	476.57
328.29	403.09
328.364	377.84
328.439	458.2
328.513	428.35
328.588	396.21
328.662	442.13
328.737	405.39
328.811	428.35
328.886	453.61
328.96	409.98
329.035	391.61
329.109	428.35
329.183	416.87
329.258	444.42
329.332	407.69
329.406	435.24
329.481	435.24
329.555	462.79
329.629	444.42
329.704	357.17
329.778	370.95
329.852	357.17
329.926	453.61
330.001	439.83
330.075	451.31
330.149	389.32
330.223	414.57
330.297	458.2
330.372	364.06
330.446	437.53
330.52	398.5
330.594	391.61
330.668	442.13
330.742	476.57
330.816	403.09
330.89	375.54
330.964	449.01
331.038	405.39
331.113	432.94
331.187	451.31
331.261	432.94
331.335	428.35
331.409	478.86
331.483	419.17
331.557	437.53
331.63	373.25
331.704	430.65
331.778	304.36
331.852	403.09
331.926	320.44
332	403.09
332.074	428.35
332.148	400.8
332.222	432.94
332.295	437.53
332.369	400.8
332.443	471.97
332.517	421.46
332.591	387.02
332.665	485.75
332.738	403.09
332.812	366.36
332.886	442.13
332.959	474.27
333.033	414.57
333.107	428.35
333.181	432.94
333.254	382.43
333.328	416.87
333.402	409.98
333.475	398.5
333.549	423.76
333.622	366.36
333.696	453.61
333.77	426.05
333.843	467.38
333.917	359.47
333.99	460.49
334.064	416.87
334.137	462.79
334.211	483.45
334.284	419.17
334.358	451.31
334.431	430.65
334.505	449.01
334.578	462.79
334.652	430.65
334.725	409.98
334.799	465.09
334.872	520.19
334.945	449.01
335.019	391.61
335.092	412.28
335.165	462.79
335.239	435.24
335.312	387.02
335.385	481.16
335.459	432.94
335.532	380.13
335.605	453.61
335.678	455.9
335.752	361.77
335.825	391.61
335.898	439.83
335.971	416.87
336.045	462.79
336.118	435.24
336.191	398.5
336.264	423.76
336.337	398.5
336.41	357.17
336.483	426.05
336.557	380.13
336.63	405.39
336.703	426.05
336.776	382.43
336.849	421.46
336.922	485.75
336.995	423.76
337.068	444.42
337.141	407.69
337.214	442.13
337.287	419.17
337.36	423.76
337.433	439.83
337.506	407.69
337.579	423.76
337.652	430.65
337.725	419.17
337.797	405.39
337.87	416.87
337.943	377.84
338.016	437.53
338.089	453.61
338.162	414.57
338.235	403.09
338.307	414.57
338.38	439.83
338.453	412.28
338.526	364.06
338.598	437.53
338.671	400.8
338.744	400.8
338.817	423.76
338.889	412.28
338.962	380.13
339.035	504.12
339.107	393.91
339.18	460.49
339.253	442.13
339.325	458.2
339.398	460.49
339.47	428.35
339.543	409.98
339.616	437.53
339.688	423.76
339.761	460.49
339.833	389.32
339.906	462.79
339.978	449.01
340.051	442.13
340.123	455.9
340.196	407.69
340.268	462.79
340.341	414.57
340.413	419.17
340.485	481.16
340.558	421.46
340.63	347.99
340.703	460.49
340.775	444.42
340.847	467.38
340.92	469.68
340.992	451.31
341.064	465.09
341.137	407.69
341.209	446.72
341.281	465.09
341.354	419.17
341.426	430.65
341.498	435.24
341.57	421.46
341.643	416.87
341.715	449.01
341.787	474.27
341.859	389.32
341.931	465.09
342.003	412.28
342.076	368.65
342.148	449.01
342.22	416.87
342.292	517.89
342.364	318.14
342.436	478.86
342.508	423.76
342.58	398.5
342.652	416.87
342.724	380.13
342.796	419.17
342.868	460.49
342.94	504.12
343.012	435.24
343.084	412.28
343.156	490.34
343.228	455.9
343.3	474.27
343.372	462.79
343.444	460.49
343.516	444.42
343.588	444.42
343.66	416.87
343.731	380.13
343.803	419.17
343.875	462.79
343.947	471.97
344.019	453.61
344.09	435.24
344.162	439.83
344.234	435.24
344.306	444.42
344.377	384.73
344.449	444.42
344.521	437.53
344.593	467.38
344.664	449.01
344.736	409.98
344.808	430.65
344.879	435.24
344.951	405.39
345.023	437.53
345.094	403.09
345.166	488.05
345.237	435.24
345.309	478.86
345.38	449.01
345.452	432.94
345.524	414.57
345.595	393.91
345.667	387.02
345.738	520.19
345.81	451.31
345.881	396.21
345.953	423.76
346.024	423.76
346.095	467.38
346.167	469.68
346.238	446.72
346.31	451.31
346.381	396.21
346.452	382.43
346.524	391.61
346.595	444.42
346.666	483.45
346.738	423.76
346.809	449.01
346.88	439.83
346.952	504.12
347.023	481.16
347.094	451.31
347.165	423.76
347.237	442.13
347.308	474.27
347.379	449.01
347.45	432.94
347.521	529.37
347.593	451.31
347.664	522.49
347.735	497.23
347.806	501.82
347.877	458.2
347.948	442.13
348.019	478.86
348.09	391.61
348.161	435.24
348.233	460.49
348.304	465.09
348.375	465.09
348.446	471.97
348.517	458.2
348.588	446.72
348.659	494.93
348.73	485.75
348.801	508.71
348.871	492.64
348.942	504.12
349.013	488.05
349.084	414.57
349.155	504.12
349.226	522.49
349.297	492.64
349.368	474.27
349.439	451.31
349.509	478.86
349.58	419.17
349.651	435.24
349.722	545.45
349.793	432.94
349.863	478.86
349.934	513.3
350.005	444.42
350.076	490.34
350.146	524.78
350.217	501.82
350.288	533.97
350.358	531.67
350.429	490.34
350.5	515.6
350.57	618.92
350.641	511.01
350.711	488.05
350.782	531.67
350.853	474.27
350.923	471.97
350.994	559.22
351.064	575.29
351.135	524.78
351.205	582.18
351.276	481.16
351.346	520.19
351.417	536.26
351.487	556.93
351.558	582.18
351.628	600.55
351.699	559.22
351.769	559.22
351.84	563.81
351.91	595.96
351.98	623.51
352.051	616.62
352.121	556.93
352.191	678.61
352.262	644.17
352.332	777.34
352.402	653.36
352.473	719.94
352.543	690.09
352.613	754.38
352.683	765.86
352.754	731.42
352.824	834.74
352.894	832.45
352.964	791.12
353.035	963.32
353.105	862.3
353.175	910.51
353.245	1004.65
353.315	961.02
353.385	1103.38
353.455	1011.54
353.526	1112.56
353.596	1179.14
353.666	1041.38
353.736	1195.22
353.806	1167.66
353.876	1305.42
353.946	1275.58
354.016	1381.19
354.086	1401.86
354.156	1452.37
354.226	1507.47
354.296	1512.07
354.366	1597.02
354.436	1679.67
354.506	1805.95
354.576	1764.63
354.645	1858.76
354.715	1920.76
354.785	2053.92
354.855	2014.89
354.925	2058.52
354.995	2180.2
355.065	2375.37
355.134	2409.81
355.204	2501.65
355.274	2545.27
355.344	2749.61
355.414	2905.74
355.483	2864.42
355.553	2979.22
355.623	3110.09
355.693	3158.3
355.762	3328.21
355.832	3482.04
355.902	3635.87
355.971	3773.64
356.041	4005.53
356.111	4030.79
356.18	4120.33
356.25	4533.61
356.319	4506.06
356.389	4731.07
356.459	4703.52
356.528	5041.03
356.598	5151.24
356.667	5229.31
356.737	5511.71
356.806	5488.75
356.876	5796.42
356.945	6007.65
357.015	6299.25
357.084	6420.93
357.154	6519.66
357.223	6971.98
357.292	7017.9
357.362	7141.88
357.431	7550.57
357.501	7601.08
357.57	8028.14
357.639	8404.69
357.709	8370.25
357.778	8519.49
357.847	8783.53
357.917	9189.92
357.986	9492.99
358.055	9573.36
358.124	9972.86
358.194	10399.92
358.263	10615.74
358.332	10914.22
358.401	11263.22
358.471	11600.73
358.54	11942.84
358.609	12133.41
358.678	12535.21
358.747	12672.97
358.816	13281.41
358.886	13632.7
358.955	13694.69
359.024	14195.22
359.093	14617.69
359.162	15136.59
359.231	15299.6
359.3	15545.28
359.369	16360.36
359.438	16364.95
359.507	16707.06
359.576	17322.39
359.645	17710.41
359.714	17999.71
359.783	18364.78
359.852	18695.4
359.921	19407.16
359.99	19735.49
360.059	20518.43
360.128	20640.12
360.197	21342.7
360.266	21542.45
360.334	22235.85
360.403	22644.54
360.472	23050.93
360.541	23425.18
360.61	24400.98
360.679	24807.38
360.747	25158.67
360.816	25762.52
360.885	26591.38
360.954	27167.68
361.022	27603.92
361.091	28419
361.16	28513.14
361.228	29002.19
361.297	29330.52
361.366	30627.76
361.434	31316.57
361.503	31587.49
361.572	32388.8
361.64	32790.6
361.709	33403.64
361.778	34537.87
361.846	34921.3
361.915	35362.13
361.983	36592.8
362.052	37072.66
362.12	37382.62
362.189	38085.2
362.257	38718.9
362.326	39683.22
362.394	39963.34
362.463	40734.8
362.531	41894.28
362.6	42073.37
362.668	42941.26
362.737	43462.46
362.805	43999.72
362.873	44867.61
362.942	45682.7
363.01	46011.03
363.079	46750.34
363.147	47285.31
363.215	47751.4
363.284	48189.94
363.352	48878.74
363.42	49909.65
363.488	49657.09
363.557	50676.52
363.625	51505.38
363.693	51307.92
363.761	52306.68
363.83	52520.21
363.898	53622.3
363.966	53695.77
364.034	54308.8
364.102	54244.52
364.171	54634.84
364.239	54965.46
364.307	55488.95
364.375	55837.95
364.443	55860.91
364.511	56418.84
364.579	56418.84
364.647	56956.1
364.715	57038.76
364.783	57293.62
364.851	57617.35
364.919	57961.76
364.987	58234.98
365.055	58446.21
365.123	58753.88
365.191	59167.16
365.259	58985.78
365.327	59197.01
365.395	59605.7
365.463	59667.69
365.531	59630.95
365.599	59750.35
365.667	60140.67
365.735	60299.09
365.802	60317.46
365.87	60698.6
365.938	60464.41
366.006	60778.96
366.074	60815.7
366.142	60861.62
366.209	60877.69
366.277	61233.57
366.345	61148.62
366.413	61199.13
366.48	61336.89
366.548	61435.62
366.616	61453.99
366.683	61649.15
366.751	61757.06
366.819	61633.08
366.886	61766.24
366.954	61692.77
367.022	61683.59
367.089	61605.52
367.157	61594.04
367.224	61839.72
367.292	61812.16
367.36	61885.64
367.427	61864.97
367.495	61619.3
367.562	61715.73
367.63	61600.93
367.697	61628.48
367.765	61676.7
367.832	61651.44
367.9	61460.87
367.967	61614.71
368.034	61435.62
368.102	61247.35
368.169	61369.03
368.237	61433.32
368.304	61245.05
368.371	60935.09
368.439	61001.67
368.506	60978.71
368.573	60877.69
368.641	60879.98
368.708	60873.1
368.775	60648.09
368.843	60384.05
368.91	60434.56
368.977	60129.19
369.044	60152.15
369.112	60048.83
369.179	59954.69
369.246	59883.52
369.313	59793.97
369.38	59828.41
369.448	59653.92
369.515	59325.59
369.582	59107.46
369.649	59272.78
369.716	58992.66
369.783	59213.08
369.85	59180.94
369.917	58852.61
369.984	58503.61
370.052	58579.38
370.119	58464.58
370.186	58636.78
370.253	58531.17
370.32	58292.38
370.387	58349.78
370.454	58186.77
370.521	58009.97
370.587	57805.63
370.654	57778.08
370.721	57665.57
370.788	57573.73
370.855	57440.56
370.922	57401.53
370.989	57300.51
371.056	57130.6
371.123	56855.08
371.189	56343.07
371.256	56147.91
371.323	56069.84
371.39	55769.07
371.457	55181.29
371.523	54788.67
371.59	54487.89
371.657	54228.44
371.724	53408.77
371.79	53055.18
371.857	51999.02
371.924	51078.32
371.991	49918.83
372.057	48706.54
372.124	47441.44
372.191	46082.2
372.257	44504.84
372.324	42902.23
372.39	40546.52
372.457	38829.11
372.524	36918.83
372.59	35134.83
372.657	33272.77
372.723	30786.19
372.79	29339.7
372.856	27401.87
372.923	25337.76
372.989	23663.97
373.056	22121.05
373.122	20571.24
373.189	19248.74
373.255	17643.83
373.322	16387.91
373.388	15483.28
373.454	14057.46
373.521	12753.33
373.587	12160.96
373.654	10817.79
373.72	10236.9
373.786	9495.29
373.853	8599.85
373.919	8037.32
373.985	7270.46
374.052	6937.54
374.118	6448.49
374.184	5941.07
374.25	5337.22
374.317	5165.02
374.383	4664.49
374.449	4437.18
374.515	4042.27
374.581	3849.4
374.648	3704.75
374.714	3532.55
374.78	3110.09
374.846	2958.55
374.912	2797.83
374.978	2662.37
375.044	2469.5
375.11	2281.23
375.177	2251.38
375.243	2138.88
375.309	1989.64
375.375	1934.53
375.441	1867.95
375.507	1727.89
375.573	1672.79
375.639	1555.69
375.705	1482.22
375.771	1445.48
375.837	1415.63
375.903	1287.06
375.968	1270.98
376.034	1192.92
376.1	1160.78
376.166	1218.18
376.232	1098.78
376.298	1023.02
376.364	1075.82
376.43	1068.94
376.495	963.32
376.561	990.87
376.627	954.14
376.693	864.59
376.759	871.48
376.824	832.45
376.89	869.18
376.956	823.26
377.022	850.82
377.087	827.85
377.153	784.23
377.219	756.68
377.284	775.05
377.35	646.47
377.416	708.46
377.481	770.45
377.547	664.84
377.613	687.8
377.678	701.57
377.744	708.46
377.809	657.95
377.875	651.06
377.94	685.5
378.006	623.51
378.071	584.48
378.137	706.17
378.202	634.99
378.268	609.73
378.333	657.95
378.399	573
378.464	616.62
378.53	584.48
378.595	605.14
378.661	614.33
378.726	600.55
378.791	579.89
378.857	554.63
378.922	593.66
378.987	589.07
379.053	513.3
379.118	575.29
379.183	527.08
379.249	554.63
379.314	538.56
379.379	520.19
379.444	545.45
379.51	573
379.575	508.71
379.64	513.3
379.705	485.75
379.771	554.63
379.836	490.34
379.901	554.63
379.966	570.7
380.031	474.27
380.096	568.41
380.161	467.38
380.227	605.14
380.292	538.56
380.357	513.3
380.422	533.97
380.487	520.19
380.552	488.05
380.617	471.97
380.682	529.37
380.747	524.78
380.812	494.93
380.877	543.15
380.942	531.67
381.007	522.49
381.072	520.19
381.137	465.09
381.202	469.68
381.266	511.01
381.331	538.56
381.396	471.97
381.461	476.57
381.526	501.82
381.591	476.57
381.656	444.42
381.72	490.34
381.785	497.23
381.85	531.67
381.915	478.86
381.979	494.93
382.044	499.53
382.109	469.68
382.174	478.86
382.238	437.53
382.303	465.09
382.368	476.57
382.432	432.94
382.497	409.98
382.562	490.34
382.626	412.28
382.691	533.97
382.756	460.49
382.82	499.53
382.885	527.08
382.949	506.41
383.014	501.82
383.078	483.45
383.143	476.57
383.208	467.38
383.272	492.64
383.337	499.53
383.401	439.83
383.465	437.53
383.53	414.57
383.594	458.2
383.659	494.93
383.723	520.19
383.788	458.2
383.852	538.56
383.916	405.39
383.981	474.27
384.045	467.38
384.109	465.09
384.174	508.71
384.238	446.72
384.302	508.71
384.367	460.49
384.431	430.65
384.495	485.75
384.56	430.65
384.624	481.16
384.688	423.76
384.752	446.72
384.816	442.13
384.881	460.49
384.945	435.24
385.009	451.31
385.073	481.16
385.137	419.17
385.201	469.68
385.265	398.5
385.33	419.17
385.394	471.97
385.458	407.69
385.522	474.27
385.586	476.57
385.65	481.16
385.714	449.01
385.778	426.05
385.842	407.69
385.906	419.17
385.97	458.2
386.034	391.61
386.098	430.65
386.162	407.69
386.226	361.77
386.29	451.31
386.354	338.8
386.417	478.86
386.481	416.87
386.545	476.57
386.609	469.68
386.673	497.23
386.737	460.49
386.8	389.32
386.864	460.49
386.928	442.13
386.992	428.35
387.056	387.02
387.119	481.16
387.183	455.9
387.247	405.39
387.31	471.97
387.374	391.61
387.438	338.8
387.502	398.5
387.565	455.9
387.629	421.46
387.692	421.46
387.756	364.06
387.82	389.32
387.883	416.87
387.947	469.68
388.01	478.86
388.074	453.61
388.138	458.2
388.201	490.34
388.265	414.57
388.328	414.57
388.392	458.2
388.455	451.31
388.519	453.61
388.582	322.73
388.645	405.39
388.709	432.94
388.772	488.05
388.836	449.01
388.899	469.68
388.962	432.94
389.026	414.57
389.089	382.43
389.153	423.76
389.216	391.61
389.279	428.35
389.343	474.27
389.406	426.05
389.469	469.68
389.532	430.65
389.596	462.79
389.659	416.87
389.722	403.09
389.785	474.27
389.848	488.05
389.912	398.5
389.975	366.36
390.038	469.68
390.101	389.32
390.164	377.84
390.227	430.65
390.291	377.84
390.354	432.94
390.417	393.91
390.48	483.45
390.543	442.13
390.606	446.72
390.669	387.02
390.732	419.17
390.795	421.46
390.858	465.09
390.921	398.5
390.984	377.84
391.047	352.58
391.11	460.49
391.173	430.65
391.236	444.42
391.299	455.9
391.362	416.87
391.424	377.84
391.487	451.31
391.55	412.28
391.613	393.91
391.676	435.24
391.739	442.13
391.802	423.76
391.864	382.43
391.927	368.65
391.99	361.77
392.053	437.53
392.115	465.09
392.178	444.42
392.241	428.35
392.304	338.8
392.366	403.09
392.429	458.2
392.492	389.32
392.554	366.36
392.617	442.13
392.68	391.61
392.742	437.53
392.805	416.87
392.867	400.8
392.93	409.98
392.992	430.65
393.055	370.95
393.118	393.91
393.18	393.91
393.243	366.36
393.305	423.76
393.368	407.69
393.43	341.1
393.493	419.17
393.555	423.76
393.618	432.94
393.68	380.13
393.742	465.09
393.805	407.69
393.867	409.98
393.93	442.13
393.992	421.46
394.054	393.91
394.117	471.97
394.179	380.13
394.241	359.47
394.304	405.39
394.366	400.8
394.428	403.09
394.49	426.05
394.553	368.65
394.615	391.61
394.677	449.01
394.739	382.43
394.802	439.83
394.864	483.45
394.926	444.42
394.988	414.57
395.05	412.28
395.112	446.72
395.174	398.5
395.237	449.01
395.299	409.98
395.361	409.98
395.423	453.61
395.485	453.61
395.547	455.9
395.609	384.73
395.671	462.79
395.733	430.65
395.795	375.54
395.857	426.05
395.919	428.35
395.981	370.95
396.043	382.43
396.105	437.53
396.167	426.05
396.229	370.95
396.291	449.01
396.352	375.54
396.414	416.87
396.476	393.91
396.538	389.32
396.6	442.13
396.662	377.84
396.724	375.54
396.785	409.98
396.847	393.91
396.909	442.13
396.971	455.9
397.032	405.39
397.094	306.66
397.156	322.73
397.218	331.92
397.279	370.95
397.341	373.25
397.403	421.46
397.464	451.31
397.526	423.76
397.588	384.73
397.649	416.87
397.711	419.17
397.772	359.47
397.834	414.57
397.896	400.8
397.957	370.95
398.019	421.46
398.08	391.61
398.142	409.98
398.203	403.09
398.265	421.46
398.326	442.13
398.388	375.54
398.449	398.5
398.511	409.98
398.572	414.57
398.633	350.28
398.695	354.88
398.756	347.99
398.818	343.4
398.879	327.32
398.94	377.84
399.002	306.66
399.063	336.51
399.124	412.28
399.186	453.61
399.247	405.39
399.308	426.05
399.369	412.28
399.431	432.94
399.492	384.73
399.553	387.02
399.614	407.69
399.676	400.8
399.737	359.47
399.798	400.8
399.859	382.43
399.92	421.46
399.981	398.5
400.042	423.76
400.104	347.99
400.165	407.69
400.226	469.68
400.287	403.09
400.348	423.76
400.409	405.39
400.47	366.36
400.531	423.76
400.592	382.43
400.653	382.43
400.714	354.88
400.775	359.47
400.836	409.98
400.897	421.46
400.958	435.24
401.019	398.5
401.08	405.39
401.141	357.17
401.201	359.47
401.262	366.36
401.323	338.8
401.384	455.9
401.445	396.21
401.506	387.02
401.567	387.02
401.627	322.73
401.688	435.24
401.749	451.31
401.81	331.92
401.87	341.1
401.931	400.8
401.992	398.5
402.053	400.8
402.113	409.98
402.174	377.84
402.235	389.32
402.295	315.84
402.356	421.46
402.417	430.65
402.477	373.25
402.538	407.69
402.598	403.09
402.659	405.39
402.719	428.35
402.78	412.28
402.841	412.28
402.901	354.88
402.962	396.21
403.022	407.69
403.083	387.02
403.143	387.02
403.204	361.77
403.264	400.8
403.324	407.69
403.385	373.25
403.445	387.02
403.506	407.69
403.566	412.28
403.627	366.36
403.687	403.09
403.747	428.35
403.808	421.46
403.868	354.88
403.928	460.49
403.989	373.25
404.049	384.73
404.109	368.65
404.169	375.54
404.23	396.21
404.29	421.46
404.35	382.43
404.41	465.09
404.47	396.21
404.531	405.39
404.591	455.9
404.651	416.87
404.711	375.54
404.771	336.51
404.831	387.02
404.892	407.69
404.952	384.73
405.012	327.32
405.072	370.95
405.132	451.31
405.192	426.05
405.252	409.98
405.312	343.4
405.372	389.32
405.432	377.84
405.492	325.03
405.552	430.65
405.612	375.54
405.672	352.58
405.732	391.61
405.792	366.36
405.852	308.96
405.912	387.02
405.971	380.13
406.031	421.46
406.091	423.76
406.151	325.03
406.211	419.17
406.271	380.13
406.33	345.69
406.39	405.39
406.45	421.46
406.51	412.28
406.57	357.17
406.629	444.42
406.689	432.94
406.749	382.43
406.808	350.28
406.868	400.8
406.928	430.65
406.988	451.31
407.047	426.05
407.107	368.65
407.166	403.09
407.226	345.69
407.286	364.06
407.345	416.87
407.405	350.28
407.464	405.39
407.524	380.13
407.584	380.13
407.643	375.54
407.703	373.25
407.762	409.98
407.822	380.13
407.881	384.73
407.941	409.98
408	393.91
408.059	334.21
408.119	288.29
408.178	382.43
408.238	398.5
408.297	405.39
408.356	375.54
408.416	439.83
408.475	412.28
408.535	393.91
408.594	382.43
408.653	373.25
408.712	382.43
408.772	382.43
408.831	405.39
408.89	334.21
408.95	403.09
409.009	403.09
409.068	357.17
409.127	400.8
409.186	407.69
409.246	414.57
409.305	437.53
409.364	419.17
409.423	430.65
409.482	398.5
409.541	396.21
409.6	389.32
409.66	343.4
409.719	400.8
409.778	311.25
409.837	377.84
409.896	297.48
409.955	398.5
410.014	361.77
410.073	414.57
410.132	419.17
410.191	412.28
410.25	407.69
410.309	375.54
410.368	428.35
410.427	407.69
410.486	345.69
410.545	366.36
410.603	341.1
410.662	430.65
410.721	412.28
410.78	338.8
410.839	336.51
410.898	382.43
410.957	414.57
411.015	400.8
411.074	336.51
411.133	462.79
411.192	375.54
411.25	382.43
411.309	389.32
411.368	370.95
411.427	338.8
411.485	428.35
411.544	306.66
411.603	407.69
411.661	361.77
411.72	405.39
411.779	426.05
411.837	315.84
411.896	426.05
411.955	380.13
412.013	387.02
412.072	412.28
412.13	407.69
412.189	370.95
412.247	347.99
412.306	377.84
412.364	368.65
412.423	426.05
412.481	334.21
412.54	432.94
412.598	331.92
412.657	373.25
412.715	407.69
412.774	403.09
412.832	396.21
412.891	419.17
412.949	366.36
413.007	352.58
413.066	396.21
413.124	405.39
413.182	389.32
413.241	377.84
413.299	380.13
413.357	419.17
413.416	341.1
413.474	361.77
413.532	432.94
413.59	380.13
413.649	426.05
413.707	327.32
413.765	426.05
413.823	359.47
413.881	370.95
413.94	384.73
413.998	361.77
414.056	384.73
414.114	336.51
414.172	338.8
414.23	341.1
414.288	407.69
414.347	382.43
414.405	430.65
414.463	387.02
414.521	423.76
414.579	352.58
414.637	393.91
414.695	396.21
414.753	368.65
414.811	382.43
414.869	361.77
414.927	350.28
414.985	409.98
415.043	432.94
415.101	435.24
415.158	366.36
415.216	400.8
415.274	407.69
415.332	382.43
415.39	389.32
415.448	391.61
415.506	347.99
415.563	393.91
415.621	389.32
415.679	430.65
415.737	389.32
415.795	382.43
415.852	400.8
415.91	357.17
415.968	387.02
416.026	398.5
416.083	389.32
416.141	370.95
416.199	350.28
416.256	359.47
416.314	352.58
416.372	361.77
416.429	416.87
416.487	391.61
416.544	368.65
416.602	343.4
416.66	421.46
416.717	439.83
416.775	315.84
416.832	373.25
416.89	375.54
416.947	350.28
417.005	446.72
417.062	421.46
417.12	370.95
417.177	391.61
417.235	308.96
417.292	311.25
417.35	391.61
417.407	352.58
417.464	352.58
417.522	416.87
417.579	377.84
417.637	389.32
417.694	361.77
417.751	412.28
417.809	370.95
417.866	368.65
417.923	325.03
417.981	357.17
418.038	331.92
418.095	398.5
418.152	377.84
418.21	352.58
418.267	414.57
418.324	387.02
418.381	352.58
418.438	341.1
418.496	361.77
418.553	382.43
418.61	350.28
418.667	403.09
418.724	382.43
418.781	403.09
418.838	444.42
418.895	350.28
418.952	387.02
419.01	439.83
419.067	396.21
419.124	380.13
419.181	492.64
419.238	364.06
419.295	313.55
419.352	341.1
419.409	375.54
419.466	361.77
419.523	426.05
419.579	377.84
419.636	368.65
419.693	322.73
419.75	370.95
419.807	357.17
419.864	414.57
419.921	419.17
419.978	405.39
420.034	357.17
420.091	382.43
420.148	391.61
420.205	458.2
420.262	345.69
420.318	442.13
420.375	343.4
420.432	398.5
420.489	455.9
420.545	426.05
420.602	336.51
420.659	462.79
420.715	389.32
420.772	370.95
420.829	375.54
420.885	352.58
420.942	389.32
420.999	380.13
421.055	357.17
421.112	368.65
421.168	430.65
421.225	320.44
421.282	384.73
421.338	423.76
421.395	391.61
421.451	368.65
421.508	377.84
421.564	391.61
421.621	409.98
421.677	357.17
421.734	354.88
421.79	350.28
421.846	357.17
421.903	347.99
421.959	442.13
422.016	403.09
422.072	391.61
422.128	341.1
422.185	442.13
422.241	382.43
422.297	345.69
422.354	380.13
422.41	409.98
422.466	341.1
422.523	384.73
422.579	403.09
422.635	380.13
422.691	329.62
422.748	368.65
422.804	377.84
422.86	437.53
422.916	366.36
422.972	432.94
423.029	364.06
423.085	341.1
423.141	416.87
423.197	341.1
423.253	387.02
423.309	343.4
423.365	359.47
423.421	393.91
423.477	359.47
423.533	354.88
423.589	389.32
423.645	350.28
423.701	391.61
423.757	409.98
423.813	370.95
423.869	361.77
423.925	377.84
423.981	403.09
424.037	471.97
424.093	361.77
424.149	375.54
424.205	414.57
424.261	387.02
424.317	338.8
424.373	398.5
424.428	400.8
424.484	368.65
424.54	304.36
424.596	387.02
424.652	403.09
424.708	343.4
424.763	419.17
424.819	428.35
424.875	442.13
424.931	368.65
424.986	366.36
425.042	334.21
425.098	375.54
425.153	373.25
425.209	364.06
425.265	331.92
425.32	325.03
425.376	377.84
425.432	370.95
425.487	416.87
425.543	313.55
425.598	334.21
425.654	455.9
425.709	347.99
425.765	380.13
425.82	336.51
425.876	393.91
425.932	398.5
425.987	364.06
426.042	389.32
426.098	407.69
426.153	345.69
426.209	260.74
426.264	380.13
426.32	320.44
426.375	416.87
426.43	439.83
426.486	366.36
426.541	439.83
426.597	409.98
426.652	343.4
426.707	341.1
426.763	396.21
426.818	396.21
426.873	458.2
426.928	366.36
426.984	359.47
427.039	350.28
427.094	414.57
427.149	295.18
427.205	341.1
427.26	345.69
427.315	405.39
427.37	377.84
427.425	341.1
427.48	405.39
427.536	370.95
427.591	387.02
427.646	391.61
427.701	423.76
427.756	364.06
427.811	334.21
427.866	373.25
427.921	375.54
427.976	327.32
428.031	389.32
428.086	347.99
428.141	320.44
428.196	368.65
428.251	393.91
428.306	393.91
428.361	469.68
428.416	414.57
428.471	391.61
428.526	377.84
428.581	341.1
428.636	428.35
428.691	432.94
428.745	444.42
428.8	396.21
428.855	409.98
428.91	343.4
428.965	428.35
429.02	467.38
429.074	373.25
429.129	389.32
429.184	375.54
429.239	375.54
429.293	432.94
429.348	334.21
429.403	389.32
429.457	359.47
429.512	387.02
429.567	414.57
429.621	357.17
429.676	407.69
429.731	405.39
429.785	405.39
429.84	377.84
429.895	387.02
429.949	444.42
430.004	364.06
430.058	345.69
430.113	414.57
430.167	354.88
430.222	389.32
430.276	449.01
430.331	357.17
430.385	405.39
430.44	380.13
430.494	416.87
430.549	354.88
430.603	409.98
430.657	377.84
430.712	352.58
430.766	380.13
430.821	403.09
430.875	334.21
430.929	423.76
430.984	439.83
431.038	370.95
431.092	414.57
431.147	343.4
431.201	391.61
431.255	391.61
431.309	352.58
431.364	387.02
431.418	393.91
431.472	375.54
431.526	361.77
431.581	435.24
431.635	308.96
431.689	364.06
431.743	354.88
431.797	449.01
431.851	398.5
431.906	329.62
431.96	311.25
432.014	366.36
432.068	331.92
432.122	352.58
432.176	341.1
432.23	396.21
432.284	405.39
432.338	428.35
432.392	347.99
432.446	364.06
432.5	313.55
432.554	336.51
432.608	352.58
432.662	299.77
432.716	398.5
432.77	364.06
432.824	315.84
432.878	366.36
432.931	384.73
432.985	343.4
433.039	320.44
433.093	435.24
433.147	359.47
433.201	391.61
433.254	384.73
433.308	281.4
433.362	338.8
433.416	396.21
433.47	407.69
433.523	336.51
433.577	384.73
433.631	345.69
433.684	409.98
433.738	343.4
433.792	384.73
433.846	391.61
433.899	393.91
433.953	329.62
434.006	375.54
434.06	318.14
434.114	297.48
434.167	297.48
434.221	297.48
