Data from FLMS155811_14-53-39-226.txt Node
Date: Tue May 12 14:53:39 MDT 2026
User: ecestudent
Spectrometer: FLMS15581
Trigger mode: 0
Integration Time (sec): 3.000000E-2
Scans to average: 200
Electric dark correction enabled: true
Nonlinearity correction enabled: false
Boxcar width: 0
XAxis mode: Wavelengths
Number of Pixels in Spectrum: 2048
>>>>>Begin Spectral Data<<<<<
298.026	-97.57
298.106	-97.57
298.185	-97.57
298.265	-128.17
298.344	-126.88
298.424	-124.6
298.503	-117.58
298.583	-103.14
298.662	-93.32
298.741	-77.77
298.821	-53.35
298.9	-37.27
298.98	-19.49
299.059	5.2
299.138	29.01
299.217	48.18
299.297	65.64
299.376	89.16
299.455	112.78
299.535	130.98
299.614	145.57
299.693	166.96
299.772	183.41
299.852	205.42
299.931	228.17
300.01	251.46
300.089	261.82
300.168	272.09
300.247	285.56
300.327	298.88
300.406	303.98
300.485	314.86
300.564	321.37
300.643	326.03
300.722	336.25
300.801	344.27
300.88	348.99
300.959	347
301.038	348.35
301.117	351.53
301.196	355.95
301.275	355.66
301.354	358.55
301.433	354.53
301.512	358.06
301.591	356.52
301.67	354.42
301.749	359.05
301.828	344.31
301.907	352.3
301.985	349.04
302.064	349
302.143	347.97
302.222	347.33
302.301	344.21
302.38	335.6
302.458	337.85
302.537	337.56
302.616	339.75
302.695	335.19
302.773	335.17
302.852	327.94
302.931	332.73
303.01	331.65
303.088	328.82
303.167	324.93
303.246	324.86
303.324	330.19
303.403	328.96
303.481	333.78
303.56	327.28
303.639	326.9
303.717	333.78
303.796	326.1
303.874	324.49
303.953	331.36
304.032	326.67
304.11	331.4
304.189	326.88
304.267	327.19
304.346	328.56
304.424	334.54
304.502	329.71
304.581	328.28
304.659	326.59
304.738	336.86
304.816	329.98
304.895	331.62
304.973	333.2
305.051	333.12
305.13	333.12
305.208	332.44
305.286	331.38
305.365	333.65
305.443	335.52
305.521	329.38
305.6	330.56
305.678	335.83
305.756	334.72
305.834	338.23
305.913	334.93
305.991	336.13
306.069	338.85
306.147	335.7
306.225	331.62
306.304	337.43
306.382	335.62
306.46	338.1
306.538	337.64
306.616	339.59
306.694	343.67
306.772	339.2
306.85	336.06
306.929	340.45
307.007	344.73
307.085	344.09
307.163	341.34
307.241	343.47
307.319	346.72
307.397	343.09
307.475	342.54
307.553	344.46
307.631	345.52
307.709	340.82
307.786	339.59
307.864	340.36
307.942	345.71
308.02	344.39
308.098	344.01
308.176	345.81
308.254	347.88
308.332	343.54
308.409	339.47
308.487	343.12
308.565	344.95
308.643	343.87
308.721	343.74
308.798	345.36
308.876	346.64
308.954	344.73
309.032	345.18
309.109	347.65
309.187	347.31
309.265	350.44
309.342	352.17
309.42	348.93
309.498	348.59
309.575	344.09
309.653	345.37
309.731	349.78
309.808	352.38
309.886	351.29
309.963	348.15
310.041	349.17
310.119	349.16
310.196	350.08
310.274	351.86
310.351	351.68
310.429	349.55
310.506	352.61
310.584	354.27
310.661	351.99
310.738	352.97
310.816	354.93
310.893	354.41
310.971	352.49
311.048	348.98
311.126	355.46
311.203	350.9
311.28	354.51
311.358	346.89
311.435	349.92
311.512	356.26
311.59	351.35
311.667	352.06
311.744	354.39
311.821	352.76
311.899	358.02
311.976	353.69
312.053	354.62
312.13	359.77
312.208	353.19
312.285	360.55
312.362	359.65
312.439	351.39
312.516	353.81
312.593	362.08
312.671	360.57
312.748	358.3
312.825	354.79
312.902	359.41
312.979	355.54
313.056	357.49
313.133	356.66
313.21	361.63
313.287	359.12
313.364	358.97
313.441	354.18
313.518	360.11
313.595	357.7
313.672	359.9
313.749	354.81
313.826	359.06
313.903	361.2
313.98	357.94
314.057	361.42
314.134	363.57
314.211	363.27
314.287	364.12
314.364	355.54
314.441	357.21
314.518	363.89
314.595	360.17
314.672	361.24
314.748	368.21
314.825	359.59
314.902	360.64
314.979	368.82
315.055	359.28
315.132	367.45
315.209	365.77
315.286	366.29
315.362	363.08
315.439	362.16
315.516	365.42
315.592	365.88
315.669	364.9
315.746	367.03
315.822	368.88
315.899	365.56
315.975	365.36
316.052	366.37
316.128	363.14
316.205	367.87
316.282	366.12
316.358	361.85
316.435	380.25
316.511	368.51
316.588	367.12
316.664	363.32
316.741	373.19
316.817	370.18
316.893	367.98
316.97	372.8
317.046	365.68
317.123	364.14
317.199	368.33
317.275	370.4
317.352	365.04
317.428	366.54
317.504	364.68
317.581	370.14
317.657	368.99
317.733	374.77
317.81	367.39
317.886	369.29
317.962	369.28
318.038	371.63
318.115	369.5
318.191	368.4
318.267	368.94
318.343	366.37
318.419	372.08
318.496	369.72
318.572	368.86
318.648	373.45
318.724	369.32
318.8	372.28
318.876	367.5
318.952	369.79
319.028	376.62
319.105	369.07
319.181	373.45
319.257	371.27
319.333	371.56
319.409	374.06
319.485	368.23
319.561	369.05
319.637	373.63
319.713	368.55
319.789	370.5
319.865	373.36
319.94	371.89
320.016	373.69
320.092	372.31
320.168	369.87
320.244	372.78
320.32	373.91
320.396	375.37
320.472	370.54
320.547	370.32
320.623	374.52
320.699	373.29
320.775	374.68
320.851	376.08
320.926	373.57
321.002	370.71
321.078	371.33
321.154	380.22
321.229	375.1
321.305	379.7
321.381	379.06
321.456	375.44
321.532	371.1
321.608	374.61
321.683	372.19
321.759	373.13
321.835	380.04
321.91	378.46
321.986	375.75
322.061	376.89
322.137	375
322.212	377.51
322.288	375.93
322.364	377.86
322.439	380.14
322.515	375.93
322.59	372.86
322.666	381.67
322.741	383.21
322.816	374.29
322.892	378.14
322.967	380.33
323.043	377.05
323.118	378.76
323.193	374.77
323.269	379.32
323.344	378.31
323.42	376.93
323.495	374.82
323.57	372.51
323.646	381.97
323.721	380.7
323.796	381.71
323.871	378.03
323.947	381.66
324.022	378.56
324.097	377.64
324.172	380.2
324.248	383.81
324.323	380.07
324.398	385.71
324.473	382.1
324.548	378.85
324.623	376.04
324.699	379.31
324.774	381.74
324.849	379.22
324.924	377.63
324.999	383.38
325.074	378.53
325.149	382.64
325.224	385.2
325.299	432.89
325.374	387.16
325.449	383.06
325.524	381.46
325.599	380.23
325.674	380.69
325.749	384.66
325.824	382.97
325.899	382.42
325.974	383.5
326.049	380.34
326.124	381.66
326.199	378.05
326.273	381.96
326.348	383.82
326.423	384.11
326.498	382.33
326.573	379.65
326.648	384.88
326.722	378.83
326.797	384.43
326.872	384.27
326.947	382.88
327.021	380.64
327.096	386.17
327.171	389.18
327.245	385.71
327.32	381.8
327.395	381.34
327.47	382.67
327.544	387.03
327.619	384.07
327.693	391.63
327.768	384.27
327.843	381.39
327.917	383.27
327.992	385.78
328.066	381.19
328.141	381.72
328.215	386.62
328.29	383.71
328.364	386.02
328.439	385.76
328.513	387.15
328.588	383.52
328.662	382.59
328.737	383.56
328.811	389.65
328.886	386.72
328.96	385.36
329.035	389.03
329.109	388.83
329.183	386.4
329.258	388.54
329.332	388.29
329.406	386.6
329.481	393.25
329.555	386.75
329.629	388.75
329.704	385.89
329.778	387.88
329.852	387.47
329.926	386.76
330.001	392.71
330.075	386.74
330.149	390.7
330.223	384.52
330.297	388.1
330.372	393.85
330.446	386.4
330.52	391.25
330.594	386.39
330.668	388.79
330.742	388.55
330.816	391.81
330.89	388.11
330.964	387.49
331.038	390.62
331.113	389.99
331.187	390.9
331.261	387.03
331.335	390.04
331.409	395.74
331.483	388.09
331.557	386.93
331.63	387.87
331.704	394.03
331.778	390.16
331.852	388.48
331.926	390.5
332	388.11
332.074	389.78
332.148	392.95
332.222	388.06
332.295	392.19
332.369	387.29
332.443	392.53
332.517	388.83
332.591	394.62
332.665	390.95
332.738	392.02
332.812	390.13
332.886	389.8
332.959	390.04
333.033	392.32
333.107	398.09
333.181	391.58
333.254	391.81
333.328	395.23
333.402	392.02
333.475	394.8
333.549	393.37
333.622	391.59
333.696	392.68
333.77	392.29
333.843	391.6
333.917	390.67
333.99	396.33
334.064	392.1
334.137	396.72
334.211	390.66
334.284	393.13
334.358	398.11
334.431	400.12
334.505	387.44
334.578	392.17
334.652	391.98
334.725	401.24
334.799	400.06
334.872	394.71
334.945	396.61
335.019	394.14
335.092	390.81
335.165	399.01
335.239	393.3
335.312	394.85
335.385	398.82
335.459	403.89
335.532	395.23
335.605	403.35
335.678	397.53
335.752	396.26
335.825	398.78
335.898	398.34
335.971	402.76
336.045	399.4
336.118	393.96
336.191	391.73
336.264	402.58
336.337	401.12
336.41	400.2
336.483	402.64
336.557	397.78
336.63	403.69
336.703	408.51
336.776	398.19
336.849	405.17
336.922	396.87
336.995	402.18
337.068	392.86
337.141	399.8
337.214	403.12
337.287	402.84
337.36	400.57
337.433	402.45
337.506	398.97
337.579	400.18
337.652	400.13
337.725	404.06
337.797	400.05
337.87	399.34
337.943	401.14
338.016	398.18
338.089	402.56
338.162	398.7
338.235	402.41
338.307	401.95
338.38	404.4
338.453	406.14
338.526	400.02
338.598	406
338.671	401.29
338.744	401.8
338.817	409.5
338.889	405.14
338.962	401.45
339.035	403.94
339.107	405.63
339.18	401.26
339.253	404.45
339.325	400.86
339.398	404.76
339.47	404.58
339.543	406.75
339.616	404.58
339.688	406.61
339.761	405.15
339.833	407.99
339.906	405.79
339.978	412.02
340.051	404.42
340.123	406.17
340.196	408.64
340.268	405.87
340.341	408.96
340.413	407.7
340.485	409.03
340.558	411.22
340.63	411.2
340.703	406.92
340.775	410.78
340.847	411.13
340.92	405.25
340.992	411.76
341.064	407.24
341.137	407.24
341.209	410.92
341.281	411.58
341.354	408.8
341.426	411.74
341.498	411.01
341.57	413.2
341.643	413.35
341.715	412.2
341.787	412.88
341.859	409.24
341.931	412.41
342.003	416.96
342.076	412.64
342.148	418.08
342.22	412.77
342.292	414.23
342.364	415.64
342.436	416.5
342.508	416.22
342.58	411.75
342.652	417.37
342.724	420.49
342.796	415.23
342.868	419.83
342.94	415.1
343.012	415.44
343.084	414.37
343.156	417.57
343.228	419.6
343.3	418.64
343.372	420.22
343.444	420.48
343.516	418.48
343.588	421.33
343.66	423.97
343.731	420.64
343.803	416.33
343.875	416.49
343.947	416.34
344.019	426.04
344.09	415.9
344.162	418.63
344.234	426.62
344.306	423.35
344.377	426.41
344.449	422.85
344.521	426.78
344.593	425.11
344.664	425.34
344.736	426.96
344.808	424.62
344.879	427.5
344.951	422.28
345.023	426.12
345.094	425.21
345.166	423.69
345.237	422.59
345.309	423.85
345.38	424.78
345.452	425.15
345.524	428.67
345.595	428.63
345.667	426.08
345.738	430.11
345.81	429.68
345.881	429.21
345.953	429.94
346.024	426.15
346.095	432.04
346.167	433.32
346.238	429.12
346.31	431.7
346.381	433.32
346.452	437.47
346.524	433.06
346.595	434.88
346.666	436.75
346.738	434.84
346.809	434.09
346.88	438.43
346.952	437.48
347.023	434.08
347.094	441.09
347.165	443.38
347.237	440.26
347.308	436.05
347.379	445.8
347.45	437.8
347.521	442.18
347.593	439.26
347.664	442.61
347.735	438.49
347.806	446.29
347.877	443.95
347.948	441.85
348.019	446.16
348.09	445.76
348.161	444.58
348.233	445.41
348.304	450.86
348.375	450.04
348.446	449.61
348.517	451.56
348.588	446.71
348.659	451.63
348.73	451.1
348.801	455.03
348.871	455.78
348.942	458
349.013	453.88
349.084	455.79
349.155	455.83
349.226	456.93
349.297	458.25
349.368	460
349.439	462.83
349.509	461.38
349.58	460.82
349.651	462.92
349.722	465.91
349.793	464.57
349.863	470.84
349.934	466.98
350.005	467.89
350.076	473.2
350.146	467.87
350.217	477.74
350.288	474.16
350.358	476.9
350.429	478.03
350.5	480.3
350.57	487.98
350.641	484.32
350.711	486.77
350.782	489.87
350.853	492.09
350.923	491.11
350.994	495.3
351.064	506.31
351.135	501.67
351.205	506.28
351.276	502.55
351.346	509.16
351.417	518.38
351.487	517.72
351.558	526.86
351.628	534.77
351.699	531.11
351.769	536.88
351.84	544.77
351.91	549.55
351.98	559.74
352.051	560.38
352.121	572.87
352.191	570.27
352.262	589.19
352.332	600.36
352.402	610.76
352.473	617.75
352.543	626.37
352.613	639.02
352.683	653.41
352.754	660.73
352.824	672.16
352.894	690.72
352.964	705.02
353.035	714.3
353.105	731.54
353.175	754.32
353.245	781.32
353.315	795.2
353.385	817.22
353.455	834.75
353.526	863
353.596	884.89
353.666	906.52
353.736	926.14
353.806	953.16
353.876	990.35
353.946	1020.99
354.016	1054.77
354.086	1100.85
354.156	1125.65
354.226	1166.38
354.296	1199.55
354.366	1236.33
354.436	1273.15
354.506	1313.99
354.576	1364.99
354.645	1404.87
354.715	1451.75
354.785	1502.56
354.855	1558.28
354.925	1604.24
354.995	1682.41
355.065	1742.17
355.134	1794.51
355.204	1875.02
355.274	1942.41
355.344	2011.09
355.414	2074.73
355.483	2123.91
355.553	2214.5
355.623	2303.53
355.693	2378.66
355.762	2466.13
355.832	2534.17
355.902	2646.61
355.971	2731.23
356.041	2800.74
356.111	2907.64
356.18	2996.58
356.25	3108.51
356.319	3199.82
356.389	3326.94
356.459	3440.38
356.528	3584.7
356.598	3697.65
356.667	3823.6
356.737	3900.51
356.806	4011.92
356.876	4166.37
356.945	4320.62
357.015	4429.81
357.084	4518.6
357.154	4734.79
357.223	4882.46
357.292	5064.74
357.362	5323
357.431	5482.4
357.501	5660.04
357.57	5801.31
357.639	5916
357.709	6091.11
357.778	6300.32
357.847	6538.73
357.917	6779.7
357.986	7024.68
358.055	7298.36
358.124	7478.43
358.194	7728.53
358.263	8017.6
358.332	8256.65
358.401	8424.32
358.471	8619.2
358.54	8949.39
358.609	9186.87
358.678	9601.58
358.747	9806.74
358.816	10096.63
358.886	10444.34
358.955	10627.35
359.024	11084.79
359.093	11209.41
359.162	11613.84
359.231	11901.14
359.3	12340.93
359.369	12640.95
359.438	13086.88
359.507	13408.43
359.576	13648.44
359.645	14052.15
359.714	14447.49
359.783	14738.58
359.852	14992.34
359.921	15492.16
359.99	15919.46
360.059	16334.86
360.128	16688.16
360.197	16920.13
360.266	17456.44
360.334	18153.6
360.403	18697.76
360.472	19159.27
360.541	19590.25
360.61	20020.41
360.679	20413.66
360.747	20968.21
360.816	21203.61
360.885	22106.76
360.954	22719.54
361.022	23443.17
361.091	23460.5
361.16	23835.34
361.228	24723.37
361.297	25244.6
361.366	26030.65
361.434	26407.76
361.503	26985.58
361.572	27760.74
361.64	28222.34
361.709	29031.95
361.778	29176.48
361.846	29729.42
361.915	30535.43
361.983	31603.21
362.052	32190.12
362.12	33135.91
362.189	33413.96
362.257	34200.67
362.326	34915.03
362.394	35565.68
362.463	36447.69
362.531	37151.89
362.6	37693.75
362.668	38820.12
362.737	38921.7
362.805	39520.4
362.873	40157.26
362.942	41190.66
363.01	41746.2
363.079	42017.85
363.147	42862.86
363.215	43594.32
363.284	43767.35
363.352	44400.08
363.42	45394.08
363.488	45648.59
363.557	46135.31
363.625	47474.53
363.693	47853.92
363.761	48688.89
363.83	49427.89
363.898	50191.8
363.966	50661.19
364.034	50773.35
364.102	50955.91
364.171	52226.13
364.239	52498.68
364.307	52956.87
364.375	52793.29
364.443	53172.49
364.511	53747.87
364.579	54373.1
364.647	54362.87
364.715	54876.78
364.783	55407.7
364.851	55827.98
364.919	56164.55
364.987	56418.94
365.055	56468.32
365.123	56602.58
365.191	56475.03
365.259	56632.9
365.327	57061.92
365.395	57651.74
365.463	57688.27
365.531	58073.18
365.599	58235.6
365.667	58658.85
365.735	58415.05
365.802	58506.22
365.87	58716.43
365.938	59159.77
366.006	59408.01
366.074	59579.47
366.142	59525.6
366.209	59322.04
366.277	59667.81
366.345	59757.96
366.413	59836.06
366.48	59624.43
366.548	59422.96
366.616	59700.66
366.683	59638.03
366.751	59821.92
366.819	60183.31
366.886	60069.54
366.954	60308.15
367.022	59967.27
367.089	60222.1
367.157	60583.79
367.224	60258.7
367.292	60188.19
367.36	60123.73
367.427	60044.37
367.495	60389.39
367.562	60325.72
367.63	60409.29
367.697	60150.69
367.765	60247.93
367.832	60195.09
367.9	60173.52
367.967	59870.49
368.034	59793.87
368.102	59932.93
368.169	59975.28
368.237	59908.29
368.304	59925.37
368.371	59558.33
368.439	59532.52
368.506	59080.71
368.573	59044.8
368.641	59432.38
368.708	59596.91
368.775	59042.72
368.843	58796.97
368.91	58475.95
368.977	58275.19
369.044	58323.46
369.112	58038.38
369.179	57985.61
369.246	57630.08
369.313	57511.34
369.38	57262.97
369.448	57249.54
369.515	57113.88
369.582	56986.36
369.649	56469.67
369.716	56362.97
369.783	56169.77
369.85	56025.73
369.917	55924.36
369.984	55485.16
370.052	55563.34
370.119	55139.33
370.186	55201.99
370.253	54829.23
370.32	54796.15
370.387	54309.66
370.454	53859.85
370.521	53740.8
370.587	53108.55
370.654	53127.49
370.721	52624.7
370.788	52362.1
370.855	51556.97
370.922	51706.65
370.989	50455.99
371.056	50094.54
371.123	49535.75
371.189	48528.1
371.256	48066.27
371.323	47190.75
371.39	46796.81
371.457	45799.14
371.523	44340.18
371.59	43235.98
371.657	42569.45
371.724	41346.29
371.79	40171.59
371.857	39078.35
371.924	37811.76
371.991	35785.39
372.057	34508.55
372.124	33067.48
372.191	31588.89
372.257	30236.42
372.324	28835.78
372.39	27334.31
372.457	25648.63
372.524	24216.28
372.59	23094.67
372.657	21765.99
372.723	20016
372.79	18534.3
372.856	17289.19
372.923	16392.55
372.989	15260.01
373.056	14088.67
373.122	12988.64
373.189	11937.1
373.255	11181.6
373.322	10370.66
373.388	9606.64
373.454	8988.67
373.521	8259.89
373.587	7689.95
373.654	7130.79
373.72	6691.05
373.786	6179.53
373.853	5819.4
373.919	5389.94
373.985	4942.75
374.052	4622.58
374.118	4252.3
374.184	4028.8
374.25	3728.05
374.317	3528.47
374.383	3306.56
374.449	3118.1
374.515	2892.98
374.581	2718.72
374.648	2567.62
374.714	2421.45
374.78	2287.38
374.846	2168.16
374.912	2045.99
374.978	1942.73
375.044	1842.12
375.11	1739.94
375.177	1665.33
375.243	1591.68
375.309	1528.81
375.375	1456.77
375.441	1391.17
375.507	1349.15
375.573	1298
375.639	1240.34
375.705	1192.07
375.771	1149.22
375.837	1108.19
375.903	1068.65
375.968	1038.01
376.034	1007.78
376.1	982.92
376.166	958.96
376.232	930.11
376.298	902.45
376.364	881.43
376.43	849.14
376.495	834.16
376.561	817.43
376.627	801.11
376.693	786.1
376.759	766.68
376.824	750.15
376.89	742.26
376.956	723.08
377.022	719.69
377.087	705.84
377.153	693.99
377.219	681.26
377.284	670.11
377.35	661.02
377.416	655.71
377.481	643.19
377.547	635.38
377.613	622.48
377.678	617.04
377.744	611.45
377.809	599.55
377.875	601.69
377.94	593.63
378.006	584.61
378.071	578.56
378.137	578.65
378.202	563.12
378.268	567.13
378.333	558.85
378.399	552.63
378.464	546.42
378.53	544.17
378.595	540.47
378.661	540.49
378.726	533.65
378.791	530.64
378.857	527.16
378.922	520.62
378.987	518.25
379.053	520.92
379.118	520.63
379.183	514.97
379.249	506.89
379.314	502.91
379.379	502.21
379.444	503.06
379.51	499.47
379.575	497.73
379.64	498.54
379.705	488.77
379.771	492.4
379.836	486.5
379.901	485.73
379.966	482.03
380.031	477.28
380.096	479.66
380.161	478.32
380.227	474.43
380.292	479.77
380.357	475.04
380.422	470.15
380.487	472.04
380.552	472.31
380.617	465.52
380.682	463.07
380.747	457.87
380.812	471.78
380.877	461.08
380.942	458.11
381.007	462.83
381.072	462.29
381.137	462.98
381.202	461.74
381.266	453.27
381.331	451.14
381.396	458.88
381.461	455.13
381.526	454.63
381.591	455.16
381.656	449.61
381.72	457.81
381.785	450.14
381.85	456.17
381.915	447.88
381.979	450.46
382.044	448.45
382.109	444.88
382.174	445.23
382.238	445.74
382.303	446.36
382.368	443.56
382.432	440.84
382.497	442.58
382.562	443.28
382.626	443.82
382.691	440.03
382.756	436.4
382.82	439.15
382.885	441.9
382.949	436.89
383.014	439.83
383.078	435.21
383.143	434.77
383.208	435.09
383.272	433.64
383.337	435.16
383.401	435.95
383.465	434.85
383.53	434.19
383.594	432.55
383.659	429.89
383.723	433.44
383.788	426.94
383.852	429.05
383.916	431.43
383.981	427.44
384.045	427.08
384.109	430.39
384.174	431.67
384.238	429.34
384.302	424.28
384.367	426.37
384.431	422.23
384.495	428.87
384.56	422.35
384.624	420.9
384.688	425.02
384.752	423.78
384.816	419.25
384.881	422.07
384.945	422.27
385.009	419.01
385.073	423.58
385.137	420.22
385.201	422.58
385.265	419.45
385.33	419.71
385.394	419.99
385.458	419.17
385.522	421.21
385.586	414.21
385.65	419.91
385.714	418.63
385.778	416.11
385.842	417.41
385.906	415.26
385.97	419.26
386.034	421.21
386.098	413.32
386.162	416.84
386.226	415.38
386.29	411.51
386.354	412.1
386.417	416.65
386.481	410.64
386.545	412.81
386.609	410.45
386.673	410.87
386.737	413.46
386.8	410.43
386.864	415.9
386.928	414.95
386.992	417.19
387.056	408.3
387.119	409.67
387.183	411.59
387.247	411.91
387.31	403.86
387.374	407.11
387.438	407.68
387.502	404.92
387.565	406.99
387.629	408.42
387.692	403.49
387.756	408.48
387.82	405.91
387.883	399.4
387.947	407.39
388.01	412.07
388.074	404.84
388.138	406.46
388.201	411.36
388.265	406.36
388.328	403.39
388.392	402.95
388.455	406.15
388.519	404.96
388.582	402.68
388.645	404.23
388.709	406.13
388.772	403.14
388.836	398.7
388.899	402.57
388.962	403.11
389.026	399.73
389.089	404.6
389.153	401.42
389.216	399.66
389.279	401.92
389.343	401.52
389.406	403.11
389.469	398.39
389.532	403.36
389.596	400.02
389.659	397.47
389.722	398.56
389.785	397.41
389.848	396.39
389.912	401.83
389.975	398.35
390.038	397.3
390.101	403.92
390.164	399.24
390.227	398.89
390.291	396.67
390.354	399.8
390.417	395.59
390.48	394.89
390.543	393.53
390.606	399.88
390.669	397.87
390.732	395.25
390.795	400.64
390.858	392.6
390.921	392.76
390.984	393.88
391.047	393.02
391.11	390.33
391.173	396.06
391.236	385.69
391.299	396.36
391.362	398.09
391.424	394.54
391.487	391.75
391.55	392.09
391.613	391.17
391.676	392.17
391.739	396.56
391.802	396.14
391.864	388.78
391.927	395.04
391.99	387.46
392.053	390.56
392.115	394.58
392.178	393.22
392.241	393.65
392.304	390.3
392.366	394.63
392.429	392.9
392.492	389.3
392.554	390.33
392.617	390.77
392.68	387.45
392.742	383.91
392.805	390.34
392.867	387.26
392.93	389.33
392.992	389.87
393.055	384.96
393.118	390.01
393.18	385.61
393.243	392.25
393.305	387.33
393.368	389.3
393.43	387.95
393.493	382.64
393.555	385.28
393.618	387.03
393.68	388.41
393.742	386
393.805	382.51
393.867	387.17
393.93	387.26
393.992	382.09
394.054	386.78
394.117	391.19
394.179	382.24
394.241	384.84
394.304	385.85
394.366	389.31
394.428	384.05
394.49	381.69
394.553	385.11
394.615	380.74
394.677	381.39
394.739	380.63
394.802	385.09
394.864	381.96
394.926	383.95
394.988	384.43
395.05	383.96
395.112	382.53
395.174	383.51
395.237	380.09
395.299	381.7
395.361	379.89
395.423	382.39
395.485	382.64
395.547	381.62
395.609	385.57
395.671	382.24
395.733	379.17
395.795	385.5
395.857	384.37
395.919	379.77
395.981	381.67
396.043	382.27
396.105	376.78
396.167	377.78
396.229	381.47
396.291	379.83
396.352	382.87
396.414	380.2
396.476	379.5
396.538	379.77
396.6	382.37
396.662	377.87
396.724	379.96
396.785	380.16
396.847	376.51
396.909	377.08
396.971	375.72
397.032	376.56
397.094	378.84
397.156	383.07
397.218	378.57
397.279	381.15
397.341	375.92
397.403	376.31
397.464	378.46
397.526	375.07
397.588	377.45
397.649	375.67
397.711	382.19
397.772	381.31
397.834	380.94
397.896	378.41
397.957	377.97
398.019	381.08
398.08	383.06
398.142	375.3
398.203	373.86
398.265	375.76
398.326	381.62
398.388	375.23
398.449	373.4
398.511	377.02
398.572	376.63
398.633	372.34
398.695	372
398.756	374.25
398.818	373.52
398.879	377.72
398.94	380.19
399.002	381.16
399.063	378.3
399.124	372.77
399.186	376.24
399.247	370.07
399.308	378.77
399.369	373.82
399.431	375.76
399.492	379.26
399.553	369.77
399.614	372.21
399.676	374.05
399.737	373.71
399.798	374.46
399.859	375.02
399.92	373.84
399.981	370.74
400.042	375.29
400.104	376.74
400.165	370.55
400.226	373.65
400.287	370.88
400.348	370.94
400.409	370.47
400.47	370.32
400.531	366.96
400.592	372.57
400.653	371.15
400.714	370.37
400.775	373.64
400.836	365.84
400.897	375.85
400.958	371.97
401.019	368.79
401.08	365.11
401.141	370.15
401.201	369.5
401.262	375.04
401.323	368.06
401.384	372.51
401.445	365.46
401.506	374.04
401.567	369.95
401.627	368.61
401.688	371.92
401.749	373.4
401.81	368.94
401.87	373.12
401.931	374.91
401.992	367.62
402.053	369.79
402.113	371.58
402.174	373.09
402.235	369.3
402.295	372.16
402.356	368.83
402.417	370.72
402.477	366.94
402.538	372.93
402.598	372.43
402.659	365.74
402.719	368.91
402.78	370.93
402.841	374.8
402.901	370.46
402.962	369.02
403.022	366.14
403.083	372.12
403.143	362.7
403.204	366.97
403.264	366.89
403.324	368.53
403.385	371.73
403.445	368.95
403.506	370.22
403.566	366.21
403.627	366.59
403.687	369.15
403.747	370.51
403.808	367.16
403.868	367.17
403.928	374.29
403.989	366.35
404.049	367.69
404.109	367.01
404.169	366.6
404.23	368.3
404.29	364.04
404.35	366.08
404.41	367.61
404.47	367.08
404.531	363.08
404.591	363.35
404.651	404.34
404.711	369.79
404.771	359.86
404.831	364.35
404.892	366.51
404.952	370.93
405.012	366.92
405.072	366.21
405.132	362.16
405.192	367.23
405.252	398.26
405.312	363.8
405.372	368.32
405.432	364.71
405.492	364.87
405.552	369.38
405.612	365.48
405.672	365.82
405.732	366.47
405.792	361.37
405.852	364.38
405.912	363.78
405.971	365.41
406.031	359.85
406.091	361.79
406.151	363.39
406.211	370.03
406.271	366.34
406.33	367.32
406.39	367.42
406.45	368.68
406.51	366.12
406.57	365.69
406.629	363.02
406.689	366.16
406.749	363.25
406.808	363.06
406.868	366.34
406.928	364.76
406.988	366.03
407.047	361.16
407.107	364.38
407.166	363.18
407.226	363.59
407.286	360.85
407.345	368.07
407.405	364.3
407.464	366.77
407.524	363.18
407.584	358.71
407.643	363.39
407.703	364.25
407.762	365.12
407.822	359.69
407.881	362.23
407.941	362.93
408	363.76
408.059	363
408.119	358.87
408.178	364.17
408.238	361.54
408.297	362.52
408.356	358.75
408.416	362.1
408.475	360.25
408.535	363.08
408.594	360.07
408.653	360.69
408.712	363.51
408.772	363.58
408.831	364.18
408.89	363.09
408.95	361.27
409.009	362.4
409.068	359.4
409.127	369.62
409.186	363.74
409.246	362.97
409.305	364.58
409.364	361
409.423	364.33
409.482	363.18
409.541	362.21
409.6	359.13
409.66	360.99
409.719	365.45
409.778	357.89
409.837	361.82
409.896	363.87
409.955	365.99
410.014	365.37
410.073	362.11
410.132	360.78
410.191	362.15
410.25	361.64
410.309	359.87
410.368	358.5
410.427	362.21
410.486	361.46
410.545	360.56
410.603	357.23
410.662	361.25
410.721	363.65
410.78	355.2
410.839	359.43
410.898	354.57
410.957	361.92
411.015	357.98
411.074	363.26
411.133	357.35
411.192	356.65
411.25	356.78
411.309	361.02
411.368	361.2
411.427	354.81
411.485	359.94
411.544	360.06
411.603	359.12
411.661	360.62
411.72	357.7
411.779	367.81
411.837	361.74
411.896	357.38
411.955	356.33
412.013	362.19
412.072	356.02
412.13	360.1
412.189	360.72
412.247	353.79
412.306	358.16
412.364	358.98
412.423	357.04
412.481	357.36
412.54	360.8
412.598	356.39
412.657	362.63
412.715	354.9
412.774	358.32
412.832	360.3
412.891	360.36
412.949	356.7
413.007	360.56
413.066	357.94
413.124	361.9
413.182	354.44
413.241	358.87
413.299	356.68
413.357	355.07
413.416	356.41
413.474	358.21
413.532	356.74
413.59	360.98
413.649	355.15
413.707	360.63
413.765	358.76
413.823	359.3
413.881	357.45
413.94	356.98
413.998	357.7
414.056	362.27
414.114	359.69
414.172	355.28
414.23	360.01
414.288	358.68
414.347	352.72
414.405	357.19
414.463	359.69
414.521	358.63
414.579	360.52
414.637	353.81
414.695	358.17
414.753	358.31
414.811	360.77
414.869	356.6
414.927	357.01
414.985	359
415.043	356.73
415.101	356.2
415.158	354.32
415.216	359.12
415.274	361.02
415.332	353.62
415.39	354.56
415.448	353.33
415.506	355.9
415.563	353.5
415.621	355.81
415.679	357.61
415.737	356.1
415.795	357.74
415.852	353.34
415.91	353.18
415.968	360.21
416.026	358.51
416.083	354.01
416.141	351.95
416.199	355.65
416.256	353.87
416.314	356.06
416.372	360.01
416.429	358.53
416.487	363.44
416.544	355.41
416.602	356.47
416.66	356.64
416.717	356.53
416.775	359.57
416.832	355.61
416.89	357.08
416.947	355.46
417.005	356.58
417.062	354.51
417.12	361.26
417.177	354.74
417.235	355.72
417.292	358.99
417.35	354.49
417.407	357.92
417.464	359.83
417.522	352.17
417.579	353.98
417.637	357.77
417.694	354.17
417.751	357.67
417.809	354.32
417.866	358.01
417.923	361.02
417.981	353.02
418.038	358.19
418.095	352.66
418.152	356.05
418.21	357.7
418.267	356.92
418.324	353.04
418.381	358.43
418.438	355.96
418.496	354.13
418.553	354.01
418.61	354.05
418.667	351.89
418.724	352.48
418.781	358.67
418.838	348.78
418.895	355.72
418.952	353.78
419.01	356.11
419.067	352.18
419.124	355.05
419.181	353.02
419.238	356.41
419.295	354.5
419.352	351.99
419.409	357.47
419.466	350.82
419.523	354.43
419.579	358.16
419.636	356.31
419.693	354.83
419.75	351.15
419.807	351.81
419.864	359.88
419.921	348.21
419.978	352.89
420.034	354.33
420.091	353.56
420.148	354.74
420.205	357.13
420.262	350.29
420.318	354.65
420.375	351.61
420.432	356.73
420.489	351.32
420.545	352.26
420.602	352.26
420.659	352.48
420.715	359.16
420.772	351.93
420.829	352.79
420.885	357.69
420.942	354.36
420.999	358.31
421.055	353.78
421.112	358.48
421.168	351.09
421.225	352.84
421.282	354.56
421.338	349.99
421.395	352.04
421.451	350.84
421.508	357.32
421.564	352.72
421.621	357.09
421.677	347.08
421.734	354.56
421.79	351.61
421.846	352.18
421.903	355.53
421.959	352.41
422.016	349.22
422.072	351.61
422.128	351.83
422.185	348.34
422.241	357.39
422.297	348.88
422.354	352.82
422.41	353.67
422.466	349.92
422.523	351.41
422.579	350.61
422.635	348.46
422.691	350.95
422.748	355.65
422.804	351.24
422.86	361.09
422.916	354.01
422.972	349.58
423.029	352.4
423.085	348.73
423.141	351.68
423.197	353.25
423.253	352.33
423.309	347.76
423.365	353.88
423.421	350.07
423.477	354.44
423.533	352.64
423.589	352
423.645	352.12
423.701	353.67
423.757	351.15
423.813	350.71
423.869	358.47
423.925	351.23
423.981	348.74
424.037	353.94
424.093	353.42
424.149	352.18
424.205	348.92
424.261	356.87
424.317	352.74
424.373	351.45
424.428	356.3
424.484	347.37
424.54	353.51
424.596	353.54
424.652	353.97
424.708	348.54
424.763	349.9
424.819	350.13
424.875	348.5
424.931	347.53
424.986	347.81
425.042	350.05
425.098	353.82
425.153	353.67
425.209	353.02
425.265	351.45
425.32	351.91
425.376	354.65
425.432	355.51
425.487	349.87
425.543	350.53
425.598	351.73
425.654	349.93
425.709	353.32
425.765	352.28
425.82	357.32
425.876	349.13
425.932	351.68
425.987	355.95
426.042	352.04
426.098	356.05
426.153	350.54
426.209	348.7
426.264	349.1
426.32	352.24
426.375	349.36
426.43	351.81
426.486	352.46
426.541	352.58
426.597	352.58
426.652	351.34
426.707	352.96
426.763	353.44
426.818	348.09
426.873	351.47
426.928	350.44
426.984	349.07
427.039	351.18
427.094	350.67
427.149	349.2
427.205	346.82
427.26	353.32
427.315	353.21
427.37	351.84
427.425	351.95
427.48	352.27
427.536	350.38
427.591	351.31
427.646	356.03
427.701	352.14
427.756	352.2
427.811	347.47
427.866	349.29
427.921	345.87
427.976	345.22
428.031	353.15
428.086	348.59
428.141	349.94
428.196	352.34
428.251	351.93
428.306	344.36
428.361	351.17
428.416	351.83
428.471	352.85
428.526	348.06
428.581	342.33
428.636	348.88
428.691	350.31
428.745	348.88
428.8	347.81
428.855	352.43
428.91	349.68
428.965	347.37
429.02	350.37
429.074	351.25
429.129	348.04
429.184	350.95
429.239	347.3
429.293	350.09
429.348	348.81
429.403	347.62
429.457	353.72
429.512	349.94
429.567	349.48
429.621	347.57
429.676	350.6
429.731	347.54
429.785	351.42
429.84	349.71
429.895	349.76
429.949	351.69
430.004	349.17
430.058	349.86
430.113	349.21
430.167	351.09
430.222	348.27
430.276	350.28
430.331	345.79
430.385	349.49
430.44	348.84
430.494	346.1
430.549	350
430.603	353.29
430.657	348.66
430.712	352.96
430.766	348.38
430.821	347.07
430.875	350.11
430.929	347.29
430.984	345.88
431.038	356.27
431.092	349.08
431.147	353.63
431.201	352.3
431.255	350.6
431.309	349.46
431.364	353.81
431.418	347.86
431.472	353.33
431.526	351.66
431.581	350.96
431.635	349.36
431.689	347.64
431.743	347.72
431.797	348.77
431.851	348.09
431.906	347.81
431.96	349.71
432.014	350.22
432.068	350.22
432.122	347.27
432.176	347.03
432.23	350.03
432.284	357.52
432.338	346.51
432.392	348.59
432.446	347.74
432.5	349.7
432.554	349.37
432.608	352.56
432.662	350.78
432.716	352.3
432.77	347.03
432.824	350.38
432.878	348.35
432.931	353.54
432.985	350.8
433.039	346.06
433.093	343.84
433.147	347.42
433.201	349.68
433.254	347.19
433.308	348.83
433.362	345.14
433.416	355.43
433.47	348.99
433.523	350.18
433.577	348.13
433.631	349.62
433.684	352.67
433.738	352.35
433.792	349.67
433.846	347.81
433.899	347.04
433.953	346.73
434.006	345.98
434.06	345.63
434.114	344.35
434.167	344.35
434.221	344.35
