Data from QEPB00791_17-19-04-670.txt Node
Date: Mon Jan 20 17:19:04 MST 2020
User: ecestudent
Spectrometer: QEPB0079
Trigger mode: 0
Integration Time (sec): 8.000000E-3
Scans to average: 1
Electric dark correction enabled: true
Nonlinearity correction enabled: false
Boxcar width: 0
XAxis mode: Wavelengths
Number of Pixels in Spectrum: 1044
>>>>>Begin Spectral Data<<<<<
198.864	28
199.671	26
200.477	29
201.284	28
202.091	30
202.897	26
203.704	28
204.51	31
205.317	30
206.123	32
206.929	28
207.736	28
208.542	27
209.348	29
210.154	29
210.96	29
211.765	29
212.571	30
213.377	30
214.182	29
214.988	29
215.793	31
216.599	31
217.404	29
218.209	29
219.015	31
219.82	28
220.625	29
221.43	30
222.235	31
223.039	34
223.844	31
224.649	32
225.453	32
226.258	34
227.062	34
227.867	29
228.671	31
229.475	30
230.28	29
231.084	30
231.888	33
232.692	28
233.496	30
234.299	31
235.103	28
235.907	34
236.71	36
237.514	33
238.317	32
239.121	31
239.924	34
240.727	35
241.531	35
242.334	36
243.137	33
243.94	37
244.743	31
245.545	39
246.348	32
247.151	33
247.954	37
248.756	35
249.559	38
250.361	39
251.163	36
251.965	36
252.768	38
253.57	37
254.372	39
255.174	41
255.976	37
256.777	42
257.579	41
258.381	42
259.183	40
259.984	43
260.786	41
261.587	39
262.388	40
263.189	45
263.991	42
264.792	46
265.593	42
266.394	43
267.195	45
267.995	45
268.796	45
269.597	42
270.397	46
271.198	47
271.998	46
272.799	50
273.599	46
274.399	51
275.2	45
276	52
276.8	48
277.6	50
278.4	46
279.199	56
279.999	50
280.799	51
281.598	50
282.398	52
283.197	54
283.997	58
284.796	55
285.595	57
286.395	59
287.194	61
287.993	60
288.792	61
289.59	62
290.389	62
291.188	70
291.987	65
292.785	75
293.584	67
294.382	78
295.181	85
295.979	81
296.777	92
297.575	92
298.373	105
299.171	112
299.969	115
300.767	120
301.565	128
302.363	138
303.16	142
303.958	146
304.756	154
305.553	157
306.35	166
307.148	180
307.945	190
308.742	207
309.539	221
310.336	234
311.133	246
311.93	253
312.727	266
313.524	287
314.32	310
315.117	325
315.913	340
316.71	325
317.506	319
318.302	320
319.099	311
319.895	306
320.691	302
321.487	300
322.283	293
323.079	299
323.874	292
324.67	286
325.466	286
326.261	279
327.057	287
327.852	286
328.648	293
329.443	305
330.238	319
331.033	327
331.828	340
332.623	372
333.418	389
334.213	410
335.008	386
335.803	368
336.597	353
337.392	345
338.186	348
338.981	348
339.775	344
340.57	346
341.364	343
342.158	351
342.952	347
343.746	362
344.54	365
345.334	362
346.127	370
346.921	368
347.715	379
348.508	378
349.302	385
350.095	384
350.889	390
351.682	399
352.475	406
353.268	429
354.061	424
354.854	450
355.647	462
356.44	478
357.233	498
358.025	515
358.818	544
359.611	585
360.403	670
361.195	753
361.988	867
362.78	971
363.572	1061
364.364	1136
365.156	1241
365.948	1342
366.74	1433
367.532	1506
368.324	1559
369.116	1570
369.907	1602
370.699	1634
371.49	1642
372.282	1658
373.073	1695
373.864	1732
374.655	1758
375.446	1805
376.237	1847
377.028	1940
377.819	2005
378.61	2081
379.401	2172
380.192	2301
380.982	2434
381.773	2588
382.563	2800
383.354	3023
384.144	3305
384.934	3649
385.724	3956
386.514	4374
387.304	4767
388.094	5175
388.884	5626
389.674	6075
390.464	6547
391.253	7021
392.043	7449
392.832	7963
393.622	8375
394.411	8792
395.201	9246
395.99	9606
396.779	9975
397.568	10369
398.357	10819
399.146	11326
399.935	11980
400.724	13174
401.512	15480
402.301	19547
403.09	24969
403.878	30164
404.667	33304
405.455	33535
406.243	31687
407.031	28733
407.82	25882
408.608	23570
409.396	21858
410.184	20988
410.971	20396
411.759	19859
412.547	19214
413.334	18449
414.122	17776
414.91	17269
415.697	17013
416.484	16905
417.272	16936
418.059	17064
418.846	17343
419.633	17605
420.42	17994
421.207	18411
421.994	18864
422.78	19316
423.567	19793
424.354	20207
425.14	20713
425.927	21333
426.713	22060
427.499	22996
428.286	24344
429.072	25646
429.858	26600
430.644	27208
431.43	27780
432.216	28967
433.002	31748
433.787	35616
434.573	40154
435.359	45042
436.144	49073
436.93	51436
437.715	50812
438.5	47847
439.286	43484
440.071	39166
440.856	35445
441.641	32381
442.426	29955
443.211	28092
443.996	26744
444.78	25712
445.565	24867
446.35	24075
447.134	23286
447.919	22491
448.703	21559
449.487	20744
450.271	19921
451.056	19202
451.84	18550
452.624	18062
453.408	17709
454.191	17567
454.975	17526
455.759	17457
456.543	17317
457.326	17054
458.11	16532
458.893	15982
459.676	15538
460.46	15067
461.243	14700
462.026	14495
462.809	14351
463.592	14319
464.375	14279
465.158	14434
465.941	14533
466.723	14721
467.506	14919
468.288	15110
469.071	15412
469.853	15573
470.636	15869
471.418	16154
472.2	16320
472.982	16356
473.764	16224
474.546	15914
475.328	15632
476.11	15428
476.892	15238
477.673	15074
478.455	15066
479.236	15080
480.018	15310
480.799	15544
481.581	15913
482.362	16363
483.143	16918
483.924	17538
484.705	17899
485.486	18034
486.267	17988
487.048	17698
487.828	17442
488.609	17082
489.39	16672
490.17	16061
490.951	15359
491.731	14602
492.511	13830
493.292	13304
494.072	12975
494.852	12799
495.632	12526
496.412	12253
497.192	11994
497.971	11769
498.751	11640
499.531	11502
500.31	11354
501.09	11225
501.869	11098
502.648	11035
503.428	10984
504.207	10944
504.986	10919
505.765	10874
506.544	10857
507.323	10925
508.102	10936
508.881	10935
509.659	10944
510.438	10999
511.216	10993
511.995	11041
512.773	11132
513.552	11124
514.33	11121
515.108	11184
515.886	11184
516.664	11179
517.442	11219
518.22	11200
518.998	11231
519.775	11260
520.553	11294
521.331	11320
522.108	11359
522.886	11418
523.663	11510
524.44	11585
525.218	11694
525.995	11852
526.772	12014
527.549	12309
528.326	12616
529.103	13097
529.879	13827
530.656	14658
531.433	15552
532.209	16353
532.986	17039
533.762	17686
534.539	18463
535.315	19547
536.091	20847
536.867	22217
537.643	23670
538.419	24870
539.195	25926
539.971	26813
540.747	27891
541.522	29707
542.298	33674
543.074	43295
543.849	58202
544.624	63140
545.4	63140
546.175	63140
546.95	63140
547.725	63140
548.5	63140
549.275	63140
550.05	63140
550.825	63140
551.6	63140
552.374	63140
553.149	56475
553.923	51061
554.698	46820
555.472	43036
556.247	40029
557.021	37339
557.795	35299
558.569	33845
559.343	32543
560.117	31514
560.891	30677
561.665	29657
562.438	28533
563.212	27362
563.985	26341
564.759	25568
565.532	25030
566.306	24885
567.079	25475
567.852	26637
568.625	28691
569.398	31727
570.171	35886
570.944	41138
571.717	47161
572.49	53559
573.262	59707
574.035	63140
574.808	63140
575.58	63140
576.352	63140
577.125	63140
577.897	63140
578.669	63140
579.441	59442
580.213	55622
580.985	52074
581.757	48565
582.529	45313
583.301	42326
584.072	39653
584.844	37088
585.615	34935
586.387	32863
587.158	31223
587.929	29723
588.701	28473
589.472	27129
590.243	25964
591.014	25081
591.785	24393
592.556	23799
593.326	23245
594.097	22607
594.868	21908
595.638	21132
596.409	20246
597.179	19576
597.949	18875
598.72	18267
599.49	17845
600.26	17391
601.03	17008
601.8	16618
602.57	16296
603.34	16027
604.109	15775
604.879	15511
605.649	15257
606.418	15021
607.188	14845
607.957	14629
608.726	14512
609.496	14287
610.265	14165
611.034	13982
611.803	13776
612.572	13605
613.341	13440
614.109	13359
614.878	13215
615.647	13107
616.415	13002
617.184	12850
617.952	12773
618.721	12713
619.489	12631
620.257	12555
621.025	12454
621.793	12403
622.561	12385
623.329	12387
624.097	12327
624.865	12281
625.632	12229
626.4	12167
627.168	12138
627.935	12111
628.702	12061
629.47	12055
630.237	12034
631.004	11953
631.771	11934
632.538	11838
633.305	11795
634.072	11779
634.839	11742
635.606	11692
636.372	11706
637.139	11683
637.905	11607
638.672	11547
639.438	11490
640.204	11500
640.971	11369
641.737	11386
642.503	11347
643.269	11321
644.035	11325
644.8	11294
645.566	11279
646.332	11205
647.097	11134
647.863	11133
648.629	11037
649.394	11044
650.159	11048
650.924	10993
651.69	11005
652.455	10968
653.22	10916
653.985	10948
654.75	10916
655.514	10888
656.279	10845
657.044	10862
657.808	10794
658.573	10819
659.337	10766
660.102	10831
660.866	10785
661.63	10731
662.394	10764
663.158	10729
663.922	10754
664.686	10737
665.45	10724
666.214	10650
666.978	10701
667.741	10673
668.505	10654
669.268	10655
670.032	10612
670.795	10599
671.558	10611
672.321	10548
673.084	10512
673.847	10510
674.61	10457
675.373	10471
676.136	10410
676.899	10410
677.662	10431
678.424	10405
679.187	10391
679.949	10376
680.711	10351
681.474	10344
682.236	10353
682.998	10324
683.76	10318
684.522	10370
685.284	10304
686.046	10339
686.808	10341
687.569	10312
688.331	10328
689.092	10379
689.854	10378
690.615	10403
691.377	10467
692.138	10526
692.899	10571
693.66	10589
694.421	10588
695.182	10550
695.943	10556
696.704	10523
697.465	10395
698.225	10349
698.986	10297
699.746	10220
700.507	10184
701.267	10150
702.027	10083
702.788	10039
703.548	9986
704.308	9966
705.068	9904
705.828	9870
706.588	9789
707.347	9809
708.107	9762
708.867	9760
709.626	9765
710.386	9725
711.145	9641
711.904	9560
712.664	9485
713.423	9415
714.182	9332
714.941	9248
715.7	9167
716.459	9135
717.218	9058
717.976	8947
718.735	8972
719.494	8839
720.252	8728
721.011	8715
721.769	8640
722.527	8569
723.285	8479
724.044	8479
724.802	8444
725.56	8377
726.317	8277
727.075	8172
727.833	8048
728.591	7900
729.348	7739
730.106	7594
730.863	7432
731.621	7276
732.378	7138
733.135	6946
733.893	6812
734.65	6679
735.407	6568
736.164	6448
736.92	6293
737.677	6223
738.434	6129
739.191	6039
739.947	5932
740.704	5834
741.46	5751
742.216	5698
742.973	5603
743.729	5528
744.485	5462
745.241	5368
745.997	5308
746.753	5249
747.509	5185
748.265	5120
749.02	5021
749.776	4982
750.531	4935
751.287	4828
752.042	4768
752.798	4716
753.553	4658
754.308	4589
755.063	4531
755.818	4459
756.573	4406
757.328	4336
758.083	4303
758.837	4224
759.592	4149
760.347	4096
761.101	4029
761.855	3992
762.61	3920
763.364	3810
764.118	3782
764.872	3716
765.626	3651
766.38	3600
767.134	3522
767.888	3428
768.642	3357
769.396	3300
770.149	3231
770.903	3171
771.656	3142
772.409	3077
773.163	3028
773.916	2982
774.669	2935
775.422	2876
776.175	2807
776.928	2749
777.681	2700
778.434	2667
779.186	2605
779.939	2555
780.692	2496
781.444	2474
782.197	2432
782.949	2390
783.701	2329
784.453	2273
785.205	2253
785.957	2214
786.709	2156
787.461	2125
788.213	2100
788.965	2061
789.716	2033
790.468	1975
791.22	1942
791.971	1938
792.722	1886
793.474	1851
794.225	1810
794.976	1781
795.727	1755
796.478	1736
797.229	1691
797.98	1655
798.731	1651
799.481	1596
800.232	1592
800.982	1555
801.733	1524
802.483	1481
803.233	1456
803.984	1414
804.734	1394
805.484	1382
806.234	1346
806.984	1311
807.734	1288
808.484	1256
809.233	1214
809.983	1207
810.732	1166
811.482	1162
812.231	1126
812.981	1089
813.73	1059
814.479	1044
815.228	1020
815.977	997
816.726	986
817.475	943
818.224	928
818.973	906
819.721	899
820.47	878
821.219	861
821.967	842
822.715	834
823.464	822
824.212	797
824.96	793
825.708	792
826.456	782
827.204	780
827.952	757
828.7	752
829.447	737
830.195	744
830.942	738
831.69	746
832.437	729
833.185	730
833.932	714
834.679	709
835.426	700
836.173	692
836.92	678
837.667	667
838.414	666
839.16	669
839.907	644
840.654	646
841.4	641
842.147	630
842.893	605
843.639	590
844.385	579
845.131	573
845.877	557
846.623	543
847.369	533
848.115	516
848.861	511
849.607	493
850.352	480
851.098	472
851.843	462
852.588	456
853.334	438
854.079	430
854.824	421
855.569	421
856.314	415
857.059	403
857.804	401
858.549	386
859.293	388
860.038	385
860.783	380
861.527	375
862.271	371
863.016	368
863.76	352
864.504	352
865.248	349
865.992	352
866.736	355
867.48	357
868.224	356
868.968	342
869.711	348
870.455	340
871.198	346
871.942	348
872.685	345
873.428	340
874.171	340
874.915	339
875.658	333
876.401	320
877.143	326
877.886	323
878.629	321
879.372	321
880.114	315
880.857	310
881.599	310
882.342	309
883.084	312
883.826	310
884.568	308
885.31	310
886.052	309
886.794	307
887.536	318
888.278	309
889.019	303
889.761	315
890.503	306
891.244	314
891.985	307
892.727	310
893.468	311
894.209	316
894.95	315
895.691	316
896.432	313
897.173	307
897.914	308
898.654	304
899.395	300
900.136	298
900.876	298
901.617	304
902.357	296
903.097	298
903.837	300
904.577	291
905.317	292
906.057	285
906.797	286
907.537	280
908.277	282
909.016	278
909.756	270
910.496	270
911.235	263
911.974	261
912.714	258
913.453	250
914.192	248
914.931	244
915.67	236
916.409	230
917.148	220
917.886	225
918.625	221
919.364	216
920.102	209
920.841	208
921.579	196
922.317	197
923.055	189
923.794	184
924.532	181
925.27	171
926.008	168
926.745	162
927.483	161
928.221	150
928.958	146
929.696	142
930.433	137
931.171	134
931.908	123
932.645	117
933.383	114
934.12	109
934.857	104
935.594	96
936.33	91
937.067	87
937.804	79
938.541	75
939.277	74
940.014	72
940.75	69
941.486	66
942.223	59
942.959	62
943.695	58
944.431	58
945.167	59
945.903	52
946.638	52
947.374	55
948.11	52
948.845	51
949.581	49
950.316	50
951.052	42
951.787	46
952.522	43
953.257	42
953.992	42
954.727	40
955.462	41
956.197	37
956.932	39
957.666	38
958.401	37
959.135	36
959.87	38
960.604	41
961.339	39
962.073	41
962.807	35
963.541	36
964.275	40
965.009	39
965.743	38
966.476	41
967.21	36
967.944	39
968.677	36
969.411	41
970.144	36
970.877	39
971.611	39
972.344	41
973.077	40
973.81	40
974.543	39
975.276	36
976.008	39
976.741	41
977.474	43
978.206	43
978.939	41
979.671	40
980.403	39
981.136	44
981.868	41
982.6	41
983.332	42
984.064	43
984.796	47
985.527	39
986.259	45
986.991	3
987.722	-3
988.454	0
989.185	-2
989.917	26
990.648	32
991.379	25
992.11	24
992.841	26
993.572	27
994.303	45
995.034	45
995.764	47
996.495	47
997.226	45
997.956	43
998.687	0
999.417	1
1000.147	-1
1000.877	2
