Data from FLMS155811_14-00-18-827.txt Node
Date: Tue May 12 14:00:18 MDT 2026
User: ecestudent
Spectrometer: FLMS15581
Trigger mode: 0
Integration Time (sec): 2.000000E0
Scans to average: 5
Electric dark correction enabled: true
Nonlinearity correction enabled: false
Boxcar width: 0
XAxis mode: Wavelengths
Number of Pixels in Spectrum: 2048
>>>>>Begin Spectral Data<<<<<
298.026	-243.86
298.106	-243.86
298.185	-243.86
298.265	-264.99
298.344	-99.68
298.424	-113.45
298.503	-62.02
298.583	-86.36
298.662	-38.6
298.741	-92.33
298.821	-107.02
298.9	-41.82
298.98	-67.99
299.059	46.35
299.138	7.78
299.217	4.1
299.297	45.89
299.376	71.15
299.455	109.72
299.535	139.57
299.614	185.03
299.693	144.16
299.772	169.42
299.852	168.96
299.931	222.68
300.01	212.58
300.089	197.89
300.168	335.19
300.247	263.09
300.327	314.07
300.406	297.53
300.485	304.42
300.564	313.15
300.643	273.66
300.722	461.01
300.801	411.88
300.88	388
300.959	335.19
301.038	394.88
301.117	330.14
301.196	296.16
301.275	326.46
301.354	409.12
301.433	418.76
301.512	317.74
301.591	385.7
301.67	358.15
301.749	660.76
301.828	348.96
301.907	292.02
301.985	365.96
302.064	364.58
302.143	340.24
302.222	491.78
302.301	374.22
302.38	301.67
302.458	425.19
302.537	281
302.616	334.27
302.695	380.65
302.773	347.13
302.852	274.11
302.931	283.76
303.01	291.11
303.088	345.75
303.167	312.23
303.246	259.88
303.324	326.92
303.403	404.53
303.481	286.51
303.56	392.59
303.639	283.3
303.717	441.26
303.796	365.96
303.874	326.92
303.953	454.12
304.032	316.82
304.11	300.75
304.189	412.33
304.267	342.54
304.346	357.23
304.424	501.42
304.502	264.93
304.581	293.86
304.659	280.08
304.738	426.57
304.816	293.4
304.895	289.73
304.973	292.48
305.051	404.07
305.13	332.43
305.208	343.91
305.286	280.08
305.365	331.06
305.443	300.29
305.521	375.14
305.6	368.25
305.678	405.45
305.756	313.15
305.834	395.8
305.913	376.52
305.991	300.75
306.069	308.55
306.147	341.16
306.225	292.02
306.304	357.69
306.382	505.55
306.46	288.81
306.538	331.52
306.616	327.84
306.694	354.93
306.772	326.92
306.85	294.78
306.929	321.87
307.007	324.63
307.085	424.27
307.163	437.13
307.241	384.78
307.319	337.94
307.397	278.25
307.475	304.88
307.553	305.34
307.631	310.39
307.709	316.82
307.786	319.12
307.864	278.25
307.942	371.92
308.02	278.25
308.098	383.4
308.176	356.31
308.254	511.52
308.332	342.54
308.409	292.48
308.487	351.26
308.565	403.61
308.643	312.69
308.721	355.39
308.798	326.46
308.876	377.44
308.954	404.99
309.032	355.85
309.109	357.69
309.187	337.48
309.265	459.17
309.342	413.71
309.42	339.32
309.498	330.14
309.575	406.36
309.653	305.34
309.731	285.59
309.808	329.68
309.886	453.2
309.963	350.34
310.041	429.78
310.119	360.9
310.196	308.55
310.274	301.21
310.351	314.52
310.429	328.76
310.506	338.4
310.584	363.66
310.661	379.73
310.738	295.24
310.816	295.7
310.893	453.66
310.971	404.07
311.048	261.26
311.126	380.65
311.203	293.86
311.28	283.3
311.358	282.38
311.435	338.86
311.512	371.92
311.59	360.44
311.667	266.31
311.744	303.5
311.821	314.98
311.899	313.15
311.976	322.79
312.053	327.84
312.13	472.49
312.208	314.07
312.285	415.09
312.362	443.56
312.439	241.05
312.516	297.07
312.593	346.21
312.671	360.9
312.748	279.17
312.825	263.55
312.902	301.67
312.979	350.34
313.056	331.97
313.133	363.2
313.21	357.23
313.287	344.83
313.364	343.91
313.441	368.25
313.518	324.17
313.595	349.42
313.672	433.92
313.749	300.75
313.826	412.33
313.903	370.09
313.98	312.69
314.057	346.21
314.134	357.23
314.211	433.46
314.287	278.71
314.364	359.99
314.441	507.85
314.518	397.18
314.595	331.52
314.672	305.8
314.748	339.78
314.825	343
314.902	303.96
314.979	316.36
315.055	300.75
315.132	483.51
315.209	348.96
315.286	324.63
315.362	418.76
315.439	378.35
315.516	345.29
315.592	451.83
315.669	380.65
315.746	449.53
315.822	376.98
315.899	369.17
315.975	482.13
316.052	394.43
316.128	331.06
316.205	370.55
316.282	503.72
316.358	342.08
316.435	1026.75
316.511	391.21
316.588	326.46
316.664	299.37
316.741	610.25
316.817	442.64
316.893	314.07
316.97	289.73
317.046	399.48
317.123	333.81
317.199	450.91
317.275	306.26
317.352	305.8
317.428	343.45
317.504	315.9
317.581	318.66
317.657	397.64
317.733	353.1
317.81	333.35
317.886	368.25
317.962	412.79
318.038	406.36
318.115	359.99
318.191	333.35
318.267	405.45
318.343	321.87
318.419	358.15
318.496	348.96
318.572	349.42
318.648	388
318.724	282.38
318.8	371.92
318.876	304.88
318.952	297.53
319.028	360.9
319.105	335.65
319.181	324.17
319.257	339.32
319.333	313.61
319.409	339.78
319.485	369.63
319.561	325.55
319.637	326.46
319.713	341.62
319.789	280.54
319.865	327.84
319.94	293.4
320.016	318.66
320.092	324.63
320.168	341.62
320.244	329.22
320.32	386.62
320.396	322.33
320.472	320.49
320.547	397.64
320.623	366.41
320.699	427.49
320.775	315.9
320.851	379.73
320.926	348.05
321.002	327.38
321.078	329.22
321.154	345.75
321.229	359.53
321.305	408.66
321.381	365.5
321.456	293.4
321.532	354.48
321.608	314.07
321.683	304.88
321.759	301.21
321.835	368.25
321.91	312.23
321.986	372.84
322.061	380.65
322.137	356.31
322.212	361.36
322.288	283.3
322.364	320.49
322.439	450.45
322.515	344.37
322.59	352.64
322.666	530.81
322.741	503.72
322.816	325.09
322.892	388.92
322.967	588.67
323.043	317.74
323.118	376.98
323.193	376.06
323.269	338.4
323.344	324.17
323.42	310.85
323.495	394.43
323.57	335.65
323.646	343
323.721	395.8
323.796	342.08
323.871	344.37
323.947	341.16
324.022	368.71
324.097	366.87
324.172	368.25
324.248	397.18
324.323	326.92
324.398	580.4
324.473	319.12
324.548	304.88
324.623	394.88
324.699	370.55
324.774	513.82
324.849	341.62
324.924	311.31
324.999	339.78
325.074	352.18
325.149	379.73
325.224	546.42
325.299	1836.32
325.374	540.91
325.449	363.2
325.524	325.09
325.599	308.55
325.674	337.48
325.749	445.4
325.824	348.05
325.899	320.95
325.974	406.82
326.049	351.26
326.124	478.92
326.199	345.75
326.273	364.12
326.348	478
326.423	403.15
326.498	412.79
326.573	317.74
326.648	433.46
326.722	281.92
326.797	352.64
326.872	337.48
326.947	306.26
327.021	299.37
327.096	313.15
327.171	351.72
327.245	335.65
327.32	301.67
327.395	300.75
327.47	255.75
327.544	394.43
327.619	317.28
327.693	828.37
327.768	299.83
327.843	348.96
327.917	325.55
327.992	329.22
328.066	358.15
328.141	297.99
328.215	345.29
328.29	376.06
328.364	351.72
328.439	371.47
328.513	472.03
328.588	321.41
328.662	317.28
328.737	384.78
328.811	326.92
328.886	326
328.96	332.43
329.035	329.68
329.109	286.97
329.183	384.32
329.258	417.39
329.332	404.99
329.406	341.16
329.481	307.64
329.555	295.7
329.629	332.89
329.704	310.85
329.778	347.59
329.852	314.98
329.926	314.98
330.001	371.92
330.075	372.84
330.149	474.79
330.223	359.53
330.297	364.12
330.372	426.57
330.446	344.83
330.52	415.09
330.594	337.48
330.668	356.77
330.742	382.03
330.816	354.48
330.89	365.5
330.964	319.58
331.038	349.42
331.113	314.98
331.187	367.79
331.261	314.52
331.335	432.54
331.409	331.52
331.483	317.74
331.557	339.78
331.63	328.76
331.704	315.44
331.778	573.51
331.852	331.52
331.926	357.23
332	348.05
332.074	338.4
332.148	401.31
332.222	301.67
332.295	310.85
332.369	327.38
332.443	494.99
332.517	307.64
332.591	445.86
332.665	395.8
332.738	329.22
332.812	326
332.886	354.02
332.959	323.71
333.033	335.19
333.107	397.64
333.181	404.53
333.254	376.06
333.328	359.99
333.402	355.39
333.475	362.28
333.549	299.37
333.622	312.23
333.696	412.33
333.77	351.26
333.843	390.29
333.917	310.85
333.99	782.45
334.064	377.44
334.137	382.03
334.211	311.77
334.284	309.01
334.358	515.2
334.431	362.74
334.505	304.88
334.578	415.55
334.652	314.52
334.725	557.44
334.799	350.34
334.872	319.58
334.945	478.92
335.019	343.45
335.092	387.08
335.165	426.57
335.239	302.59
335.312	338.86
335.385	351.72
335.459	464.22
335.532	465.6
335.605	430.7
335.678	628.62
335.752	400.4
335.825	290.19
335.898	332.43
335.971	647.91
336.045	359.07
336.118	288.35
336.191	340.7
336.264	462.85
336.337	366.87
336.41	318.2
336.483	396.72
336.557	310.39
336.63	294.78
336.703	695.2
336.776	358.61
336.849	592.34
336.922	324.17
336.995	306.72
337.068	279.63
337.141	391.67
337.214	330.14
337.287	312.69
337.36	304.42
337.433	325.55
337.506	294.78
337.579	326
337.652	409.12
337.725	431.16
337.797	303.96
337.87	318.2
337.943	420.6
338.016	312.23
338.089	333.81
338.162	334.27
338.235	322.33
338.307	347.59
338.38	379.27
338.453	404.53
338.526	331.06
338.598	419.68
338.671	278.25
338.744	326.92
338.817	374.68
338.889	326.46
338.962	313.61
339.035	318.2
339.107	309.47
339.18	332.43
339.253	324.63
339.325	310.39
339.398	293.4
339.47	327.38
339.543	483.97
339.616	377.89
339.688	432.08
339.761	451.37
339.833	476.16
339.906	349.42
339.978	322.79
340.051	336.11
340.123	314.52
340.196	413.71
340.268	296.62
340.341	300.29
340.413	327.38
340.485	357.23
340.558	396.72
340.63	438.97
340.703	354.48
340.775	283.76
340.847	289.73
340.92	307.18
340.992	358.15
341.064	352.18
341.137	343.91
341.209	323.71
341.281	330.14
341.354	333.35
341.426	344.83
341.498	368.71
341.57	314.52
341.643	341.62
341.715	379.73
341.787	361.36
341.859	301.67
341.931	320.49
342.003	332.89
342.076	436.67
342.148	395.34
342.22	303.96
342.292	410.96
342.364	352.18
342.436	375.6
342.508	348.05
342.58	308.1
342.652	359.53
342.724	644.23
342.796	348.05
342.868	377.89
342.94	326
343.012	462.39
343.084	375.14
343.156	317.74
343.228	348.05
343.3	371.47
343.372	345.75
343.444	314.07
343.516	350.8
343.588	449.53
343.66	346.67
343.731	328.76
343.803	292.94
343.875	305.34
343.947	310.85
344.019	325.55
344.09	300.29
344.162	328.3
344.234	377.44
344.306	296.62
344.377	439.89
344.449	362.28
344.521	463.77
344.593	372.84
344.664	309.01
344.736	326.46
344.808	352.64
344.879	331.06
344.951	313.15
345.023	329.22
345.094	354.48
345.166	292.48
345.237	406.82
345.309	329.22
345.38	386.62
345.452	375.14
345.524	260.8
345.595	374.68
345.667	303.04
345.738	333.81
345.81	384.78
345.881	361.36
345.953	362.74
346.024	355.39
346.095	309.93
346.167	338.4
346.238	343
346.31	363.66
346.381	324.63
346.452	354.02
346.524	323.25
346.595	294.78
346.666	424.27
346.738	304.88
346.809	294.78
346.88	470.19
346.952	299.37
347.023	381.11
347.094	352.64
347.165	507.39
347.237	394.88
347.308	295.7
347.379	294.32
347.45	348.05
347.521	407.74
347.593	313.61
347.664	423.81
347.735	340.7
347.806	369.17
347.877	360.9
347.948	284.22
348.019	348.51
348.09	357.69
348.161	382.95
348.233	276.41
348.304	484.43
348.375	415.55
348.446	499.12
348.517	322.79
348.588	353.1
348.659	331.06
348.73	379.27
348.801	328.3
348.871	377.89
348.942	390.75
349.013	355.85
349.084	312.69
349.155	319.12
349.226	347.13
349.297	291.56
349.368	331.52
349.439	338.86
349.509	387.54
349.58	366.41
349.651	366.41
349.722	358.15
349.793	354.48
349.863	316.36
349.934	338.86
350.005	297.53
350.076	362.28
350.146	339.32
350.217	309.93
350.288	329.68
350.358	348.51
350.429	377.89
350.5	330.6
350.57	479.84
350.641	339.32
350.711	316.36
350.782	355.39
350.853	354.93
350.923	317.74
350.994	332.89
351.064	357.23
351.135	345.75
351.205	308.1
351.276	318.2
351.346	285.14
351.417	483.97
351.487	347.59
351.558	344.83
351.628	391.67
351.699	353.56
351.769	454.58
351.84	395.8
351.91	314.52
351.98	349.42
352.051	390.75
352.121	365.04
352.191	336.57
352.262	314.07
352.332	424.27
352.402	374.22
352.473	358.15
352.543	387.54
352.613	440.81
352.683	343.45
352.754	302.59
352.824	339.78
352.894	376.98
352.964	324.17
353.035	365.04
353.105	393.51
353.175	342.54
353.245	331.52
353.315	407.74
353.385	458.25
353.455	421.52
353.526	338.86
353.596	279.17
353.666	399.02
353.736	322.79
353.806	312.23
353.876	318.66
353.946	332.89
354.016	373.3
354.086	351.26
354.156	354.48
354.226	325.55
354.296	320.49
354.366	407.28
354.436	371.92
354.506	341.62
354.576	291.11
354.645	398.1
354.715	453.2
354.785	483.05
354.855	314.07
354.925	380.65
354.995	334.73
355.065	381.57
355.134	399.94
355.204	358.15
355.274	326.92
355.344	314.52
355.414	451.83
355.483	320.95
355.553	341.62
355.623	424.27
355.693	433.46
355.762	342.08
355.832	347.13
355.902	376.52
355.971	424.27
356.041	517.49
356.111	409.58
356.18	326
356.25	321.41
356.319	297.07
356.389	325.09
356.459	327.38
356.528	292.94
356.598	322.33
356.667	290.65
356.737	313.15
356.806	326
356.876	316.36
356.945	353.1
357.015	392.13
357.084	304.88
357.154	375.14
357.223	324.17
357.292	450.91
357.362	373.3
357.431	356.77
357.501	416.01
357.57	351.72
357.639	358.61
357.709	344.83
357.778	353.56
357.847	286.51
357.917	369.63
357.986	389.37
358.055	348.05
358.124	314.52
358.194	551.47
358.263	3872.42
358.332	549.64
358.401	349.42
358.471	342.54
358.54	329.22
358.609	325.09
358.678	412.79
358.747	312.69
358.816	399.94
358.886	379.73
358.955	373.76
359.024	306.26
359.093	386.62
359.162	496.37
359.231	334.27
359.3	330.14
359.369	413.25
359.438	361.36
359.507	337.48
359.576	347.59
359.645	407.28
359.714	387.54
359.783	352.64
359.852	399.02
359.921	336.57
359.99	331.52
360.059	406.36
360.128	338.86
360.197	324.17
360.266	435.75
360.334	382.03
360.403	317.28
360.472	304.88
360.541	318.2
360.61	378.35
360.679	367.33
360.747	369.17
360.816	370.09
360.885	309.47
360.954	383.86
361.022	403.61
361.091	369.17
361.16	315.44
361.228	460.09
361.297	370.09
361.366	514.74
361.434	472.03
361.503	545.04
361.572	336.57
361.64	323.25
361.709	292.48
361.778	345.75
361.846	354.02
361.915	370.09
361.983	327.84
362.052	325.09
362.12	401.31
362.189	387.08
362.257	399.48
362.326	354.93
362.394	376.98
362.463	435.75
362.531	386.62
362.6	326.46
362.668	347.13
362.737	329.68
362.805	354.93
362.873	457.8
362.942	403.61
363.01	416.93
363.079	300.75
363.147	376.98
363.215	359.53
363.284	320.95
363.352	338.86
363.42	370.09
363.488	356.31
363.557	324.17
363.625	336.57
363.693	367.33
363.761	429.33
363.83	441.72
363.898	346.67
363.966	322.33
364.034	337.03
364.102	307.18
364.171	312.23
364.239	399.02
364.307	357.69
364.375	346.21
364.443	342.54
364.511	391.21
364.579	359.53
364.647	355.85
364.715	318.66
364.783	355.85
364.851	357.23
364.919	505.09
364.987	488.56
365.055	337.48
365.123	347.13
365.191	367.79
365.259	557.44
365.327	368.25
365.395	358.15
365.463	343.45
365.531	447.69
365.599	358.61
365.667	388
365.735	411.42
365.802	369.63
365.87	395.34
365.938	395.8
366.006	378.35
366.074	345.29
366.142	314.07
366.209	387.08
366.277	415.55
366.345	346.21
366.413	297.99
366.48	615.3
366.548	365.5
366.616	379.73
366.683	382.95
366.751	377.44
366.819	375.14
366.886	408.66
366.954	629.54
367.022	1404.21
367.089	425.19
367.157	372.84
367.224	2189.45
367.292	436.67
367.36	400.85
367.427	426.57
367.495	401.31
367.562	421.52
367.63	354.93
367.697	469.28
367.765	438.97
367.832	428.41
367.9	387.08
367.967	469.28
368.034	337.48
368.102	316.36
368.169	368.71
368.237	309.93
368.304	373.3
368.371	337.48
368.439	398.56
368.506	393.97
368.573	353.1
368.641	447.23
368.708	422.9
368.775	401.31
368.843	338.86
368.91	371.01
368.977	408.66
369.044	313.15
369.112	356.77
369.179	370.55
369.246	363.2
369.313	357.69
369.38	358.15
369.448	390.75
369.515	364.12
369.582	326.46
369.649	433.46
369.716	411.88
369.783	421.06
369.85	426.57
369.917	337.94
369.984	424.27
370.052	373.3
370.119	420.14
370.186	583.16
370.253	428.87
370.32	411.88
370.387	409.58
370.454	418.3
370.521	367.79
370.587	438.97
370.654	413.25
370.721	446.32
370.788	333.81
370.855	342.54
370.922	399.94
370.989	339.32
371.056	400.4
371.123	507.85
371.189	389.83
371.256	384.32
371.323	370.09
371.39	391.21
371.457	360.9
371.523	557.9
371.59	372.84
371.657	384.32
371.724	333.35
371.79	354.93
371.857	343
371.924	540.91
371.991	400.85
372.057	378.81
372.124	550.1
372.191	542.75
372.257	480.3
372.324	390.75
372.39	351.72
372.457	411.88
372.524	399.02
372.59	426.11
372.657	368.71
372.723	333.35
372.79	389.83
372.856	476.62
372.923	532.65
372.989	404.07
373.056	354.02
373.122	382.95
373.189	366.41
373.255	352.64
373.322	404.53
373.388	444.94
373.454	374.22
373.521	482.59
373.587	485.35
373.654	421.52
373.72	485.81
373.786	351.72
373.853	484.43
373.919	485.81
373.985	416.47
374.052	355.85
374.118	354.02
374.184	464.68
374.25	565.71
374.317	423.36
374.383	412.79
374.449	453.66
374.515	450.91
374.581	446.77
374.648	406.36
374.714	423.36
374.78	385.7
374.846	519.79
374.912	406.82
374.978	400.85
375.044	455.04
375.11	384.78
375.177	381.11
375.243	406.82
375.309	451.83
375.375	478
375.441	368.25
375.507	563.41
375.573	490.4
375.639	382.95
375.705	492.24
375.771	488.56
375.837	386.62
375.903	411.88
375.968	415.55
376.034	401.77
376.1	526.22
376.166	556.06
376.232	502.34
376.298	426.11
376.364	422.9
376.43	468.36
376.495	425.19
376.561	388.92
376.627	418.76
376.693	487.64
376.759	466.06
376.824	484.89
376.89	410.96
376.956	498.66
377.022	595.1
377.087	422.9
377.153	432.54
377.219	439.43
377.284	506.47
377.35	463.77
377.416	438.97
377.481	500.5
377.547	441.72
377.613	550.55
377.678	429.78
377.744	389.83
377.809	495.45
377.875	640.56
377.94	626.78
378.006	474.33
378.071	432.08
378.137	451.37
378.202	543.21
378.268	443.1
378.333	462.85
378.399	416.93
378.464	506.47
378.53	447.69
378.595	531.27
378.661	542.75
378.726	444.94
378.791	489.02
378.857	440.81
378.922	519.79
378.987	472.49
379.053	519.79
379.118	588.21
379.183	566.63
379.249	555.15
379.314	468.36
379.379	510.14
379.444	531.27
379.51	508.31
379.575	479.84
379.64	552.39
379.705	476.16
379.771	592.34
379.836	515.2
379.901	502.8
379.966	535.4
380.031	532.65
380.096	577.65
380.161	550.55
380.227	639.64
380.292	591.88
380.357	487.64
380.422	544.13
380.487	512.9
380.552	533.56
380.617	543.67
380.682	551.01
380.747	557.44
380.812	616.22
380.877	516.57
380.942	535.4
381.007	731.48
381.072	648.82
381.137	620.35
381.202	672.24
381.266	631.83
381.331	580.86
381.396	647.91
381.461	579.02
381.526	610.71
381.591	713.57
381.656	617.14
381.72	605.2
381.785	617.14
381.85	755.36
381.915	648.82
381.979	731.48
382.044	699.8
382.109	661.22
382.174	635.05
382.238	688.31
382.303	716.33
382.368	714.03
382.432	757.65
382.497	629.54
382.562	711.73
382.626	731.02
382.691	766.84
382.756	669.03
382.82	685.1
382.885	737.45
382.949	657.55
383.014	747.55
383.078	778.78
383.143	685.56
383.208	710.36
383.272	782.45
383.337	832.05
383.401	755.82
383.465	711.73
383.53	742.96
383.594	771.89
383.659	858.68
383.723	770.97
383.788	760.87
383.852	795.31
383.916	871.54
383.981	880.72
384.045	915.16
384.109	823.78
384.174	888.07
384.238	984.96
384.302	856.38
384.367	918.38
384.431	970.26
384.495	1125.48
384.56	949.6
384.624	900.93
384.688	935.37
384.752	971.64
384.816	947.76
384.881	971.18
384.945	1074.04
385.009	1046.95
385.073	1015.27
385.137	1052.46
385.201	1108.94
385.265	1048.33
385.33	1084.61
385.394	1094.71
385.458	1174.61
385.522	1154.86
385.586	1151.19
385.65	1400.08
385.714	1214.1
385.778	1188.85
385.842	1197.11
385.906	1325.69
385.97	1263.24
386.034	1362.88
386.098	1217.32
386.162	1240.28
386.226	1293.54
386.29	1348.65
386.354	1381.25
386.417	1351.4
386.481	1415.69
386.545	1372.07
386.609	1385.84
386.673	1401
386.737	1508.45
386.8	1451.05
386.864	1598.91
386.928	1513.5
386.992	1712.79
387.056	1572.28
387.119	1635.65
387.183	1596.62
387.247	1738.05
387.31	1584.22
387.374	1674.68
387.438	1683.41
387.502	1758.26
387.565	1777.54
387.629	1972.7
387.692	1831.73
387.756	1849.64
387.82	1820.71
387.883	1895.1
387.947	1834.48
388.01	2055.36
388.074	1981.43
388.138	1923.11
388.201	2153.17
388.265	2093.01
388.328	2112.3
388.392	2299.2
388.455	2196.33
388.519	2152.25
388.582	2347.41
388.645	2265.67
388.709	2620.64
388.772	2259.7
388.836	2305.16
388.899	2364.86
388.962	2412.16
389.026	2392.87
389.089	2538.9
389.153	2607.32
389.216	2492.52
389.279	2555.43
389.343	2613.75
389.406	2689.98
389.469	2666.56
389.532	2752.43
389.596	2783.65
389.659	2779.06
389.722	2807.07
389.785	2835.54
389.848	3016.01
389.912	3005.91
389.975	2992.13
390.038	3094.07
390.101	3111.98
390.164	3255.71
390.227	3252.5
390.291	3264.9
390.354	3373.73
390.417	3483.48
390.48	3402.66
390.543	3548.68
390.606	3501.85
390.669	3566.59
390.732	3600.57
390.795	3667.62
390.858	3714.46
390.921	3901.81
390.984	3817.32
391.047	3798.49
391.11	3924.31
391.173	4077.68
391.236	4091.92
391.299	4425.76
391.362	4386.27
391.424	4175.49
391.487	4322.9
391.55	4527.24
391.613	4500.15
391.676	4612.2
391.739	4663.63
391.802	4839.96
391.864	4906.54
391.927	4873.94
391.99	4980.02
392.053	5037.42
392.115	5053.03
392.178	5295.49
392.241	5401.56
392.304	5260.13
392.366	5421.77
392.429	5785
392.492	5523.25
392.554	5607.74
392.617	5830.92
392.68	5655.96
392.742	5965.46
392.805	5939.75
392.867	6179.45
392.93	6054.09
392.992	6209.3
393.055	6203.33
393.118	6300.22
393.18	6382.42
393.243	6609.72
393.305	6670.8
393.368	6796.16
393.43	6662.99
393.493	6834.27
393.555	6881.57
393.618	6993.62
393.68	7043.21
393.742	6920.14
393.805	7111.17
393.867	7315.98
393.93	7432.61
393.992	7649.82
394.054	7768.75
394.117	8033.25
394.179	7808.24
394.241	7883.09
394.304	8114.99
394.366	8429.08
394.428	8437.81
394.49	8308.31
394.553	8331.73
394.615	8585.21
394.677	8801.04
394.739	8924.1
394.802	9264.37
394.864	9307.53
394.926	9499.48
394.988	9708.88
395.05	9826.89
395.112	9792.45
395.174	9995.42
395.237	10114.81
395.299	10360.03
395.361	10676.42
395.423	10658.51
395.485	10741.16
395.547	10925.3
395.609	11097.04
395.671	11425.37
395.733	11386.8
395.795	11586.09
395.857	11898.81
395.919	12059.07
395.981	12301.99
396.043	12516.9
396.105	12650.52
396.167	12977.94
396.229	13130.39
396.291	13236.01
396.352	13457.8
396.414	13882.56
396.476	14120.89
396.538	14210.89
396.6	14346.36
396.662	14562.64
396.724	14958.01
396.785	15156.85
396.847	15543.5
396.909	15931.98
396.971	16158.37
397.032	15980.66
397.094	16007.75
397.156	16526.65
397.218	16644.2
397.279	16810.89
397.341	16964.73
397.403	17459.29
397.464	17745.83
397.526	18177.48
397.588	18548.51
397.649	18664.69
397.711	18879.6
397.772	19458.65
397.834	20128.63
397.896	20006.02
397.957	20520.33
398.019	20571.76
398.08	20698.96
398.142	21147.14
398.203	21804.26
398.265	21960.84
398.326	21453.88
398.388	21935.59
398.449	22444.84
398.511	23034.92
398.572	22656.07
398.633	23005.99
398.695	23871.58
398.756	24557.17
398.818	24913.05
398.879	24937.39
398.94	25818.6
399.002	25939.37
399.063	26376.53
399.124	26668.12
399.186	27131.92
399.247	26975.33
399.308	27766.53
399.369	28027.82
399.431	27982.82
399.492	28799.28
399.553	28977.91
399.614	29095.46
399.676	30162.65
399.737	30158.06
399.798	30065.3
399.859	30324.75
399.92	30774.76
399.981	31096.67
400.042	31310.65
400.104	32104.15
400.165	32518.81
400.226	33111.18
400.287	33417.93
400.348	33480.38
400.409	34349.65
400.47	34908.96
400.531	35500.87
400.592	35944.92
400.653	36517.08
400.714	36051.91
400.775	36537.29
400.836	37295.43
400.897	37184.3
400.958	38655.59
401.019	38794.27
401.08	38166.54
401.141	38863.61
401.201	38861.31
401.262	39491.34
401.323	39097.8
401.384	40297.69
401.445	40548.42
401.506	42122.56
401.567	42090.42
401.627	42315.43
401.688	42874.28
401.749	43758.24
401.81	44203.67
401.87	44193.1
401.931	44655.06
401.992	45075.69
402.053	44912.21
402.113	45771.84
402.174	46697.13
402.235	46332.98
402.295	46665.91
402.356	47068.63
402.417	48066.47
402.477	48019.63
402.538	47919.99
402.598	48362.2
402.659	48893.49
402.719	49333.41
402.78	50095.68
402.841	50802.4
402.901	51127.05
402.962	51385.12
403.022	51698.76
403.083	52191.48
403.143	51521.97
403.204	51768.1
403.264	51959.59
403.324	52596.04
403.385	52976.72
403.445	53737.16
403.506	53476.79
403.566	52739.77
403.627	52879.83
403.687	53901.09
403.747	53914.87
403.808	53739.91
403.868	54198.19
403.928	54614.23
403.989	55047.26
404.049	54436.98
404.109	54899.4
404.169	54754.29
404.23	55052.31
404.29	54920.06
404.35	55638.25
404.41	56030.41
404.47	56145.21
404.531	55939.95
404.591	56365.17
404.651	57651.85
404.711	57017.69
404.771	56648.96
404.831	56794.52
404.892	56839.52
404.952	56954.78
405.012	56527.27
405.072	56811.51
405.132	57324.9
405.192	57177.04
405.252	58139.52
405.312	57323.98
405.372	57986.61
405.432	56986.01
405.492	57296.89
405.552	57332.71
405.612	57143.06
405.672	57199.08
405.732	57549.45
405.792	57627.51
405.852	57971.46
405.912	57555.42
405.971	57751.04
406.031	57420.41
406.091	57154.54
406.151	56863.86
406.211	57031.47
406.271	57141.68
406.33	57225.25
406.39	57120.1
406.45	56767.89
406.51	56999.79
406.57	56990.14
406.629	56952.49
406.689	56679.26
406.749	56216.85
406.808	56123.63
406.868	55950.51
406.928	55496.82
406.988	55703
407.047	55379.26
407.107	55693.82
407.166	55458.24
407.226	55625.85
407.286	55807.7
407.345	55625.39
407.405	55291.55
407.464	54389.22
407.524	53849.66
407.584	54072.37
407.643	53914.87
407.703	54127.94
407.762	54287.28
407.822	53902.93
407.881	53700.88
407.941	52877.53
408	53301.83
408.059	53142.95
408.119	53268.31
408.178	52516.14
408.238	52986.82
408.297	52489.05
408.356	52642.42
408.416	52802.68
408.475	52167.14
408.535	52123.98
408.594	50595.3
408.653	51320.84
408.712	50436.41
408.772	49153.86
408.831	48682.72
408.89	49139.17
408.95	50253.19
409.009	49714.55
409.068	49212.18
409.127	49482.19
409.186	48114.69
409.246	46658.1
409.305	47327.16
409.364	47598.09
409.423	48652.41
409.482	48041.67
409.541	46303.6
409.6	46418.86
409.66	45927.51
409.719	44962.27
409.778	45181.77
409.837	45534.43
409.896	45102.78
409.955	44209.18
410.014	44257.85
410.073	44702.36
410.132	43798.65
410.191	43429.45
410.25	42712.64
410.309	42089.5
410.368	41707.44
410.427	41387.84
410.486	41712.49
410.545	40503.88
410.603	39962.48
410.662	40394.13
410.721	39608.89
410.78	39777.42
410.839	39508.78
410.898	39709.46
410.957	39246.58
411.015	38396.6
411.074	38330.93
411.133	38260.21
411.192	37637.54
411.25	37214.15
411.309	36587.8
411.368	36523.51
411.427	36878.02
411.485	36259.01
411.544	35727.72
411.603	35988.08
411.661	35297.44
411.72	35360.35
411.779	35747.92
411.837	34819.42
411.896	34619.66
411.955	34328.07
412.013	33541
412.072	33351.81
412.13	34031.88
412.189	32987.2
412.247	33076.74
412.306	33074.91
412.364	32195.08
412.423	32425.6
412.481	31678.47
412.54	31591.68
412.598	31366.68
412.657	31514.54
412.715	30878.09
412.774	31169.22
412.832	31054.88
412.891	31253.71
412.949	30498.78
413.007	29729.16
413.066	30015.24
413.124	30007.9
413.182	29498.18
413.241	29233.22
413.299	28743.71
413.357	28942.55
413.416	29059.19
413.474	29001.79
413.532	28871.83
413.59	27674.69
413.649	27417.08
413.707	27388.15
413.765	27556.68
413.823	28007.15
413.881	27669.18
413.94	27632.91
413.998	27780.31
414.056	26727.82
414.114	26347.14
414.172	25881.97
414.23	26089.53
414.288	26281.93
414.347	25968.76
414.405	25837.43
414.463	26020.19
414.521	25876.92
414.579	25309.34
414.637	25677.16
414.695	25660.17
414.753	25528.38
414.811	25097.65
414.869	24890.55
414.927	24559.01
414.985	24698.61
415.043	24473.6
415.101	24840.96
415.158	24318.85
415.216	23808.21
415.274	23843.11
415.332	23616.27
415.39	23490.44
415.448	23433.5
415.506	23688.82
415.563	23360.03
415.621	22946.29
415.679	22556.89
415.737	22986.24
415.795	22847.56
415.852	22766.74
415.91	22128.91
415.968	21964.98
416.026	21875.43
416.083	21948.44
416.141	21484.65
416.199	21540.21
416.256	21509.91
416.314	21585.68
416.372	21458.94
416.429	21377.66
416.487	21167.34
416.544	20823.86
416.602	20929.02
416.66	20615.84
416.717	20150.21
416.775	20228.27
416.832	20253.07
416.89	20460.17
416.947	20418.84
417.005	19986.73
417.062	19564.73
417.12	19439.82
417.177	19462.78
417.235	19663.46
417.292	19504.11
417.35	19179
417.407	18880.06
417.464	18583.41
417.522	18650.92
417.579	18463.1
417.637	18829.09
417.694	18140.74
417.751	17972.22
417.809	17918.03
417.866	17861.09
417.923	17931.81
417.981	17618.63
418.038	17605.31
418.095	17428.06
418.152	17253.11
418.21	17014.32
418.267	16999.17
418.324	16791.61
418.381	16634.56
418.438	16279.6
418.496	16661.65
418.553	16246.08
418.61	15875.04
418.667	15988
418.724	15782.74
418.781	15735.44
418.838	15678.5
418.895	15380.48
418.952	15397.01
419.01	15252.82
419.067	14928.17
419.124	14855.15
419.181	14817.96
419.238	14778.47
419.295	14877.19
419.352	14888.22
419.409	14393.66
419.466	14181.04
419.523	14193.44
419.579	13977.16
419.636	14045.12
419.693	13812.76
419.75	13813.68
419.807	13431.17
419.864	13751.23
419.921	13659.39
419.978	13585
420.034	13537.7
420.091	13406.37
420.148	13159.32
420.205	12766.7
420.262	12806.19
420.318	12585.78
420.375	12511.85
420.432	12468.22
420.489	12254.69
420.545	12307.04
420.602	12148.62
420.659	11868.96
420.715	11846.92
420.772	11792.28
420.829	11610.43
420.885	11463.03
420.942	11585.64
420.999	11187.51
421.055	11350.52
421.112	10990.05
421.168	11119.55
421.225	10957.45
421.282	10851.83
421.338	10646.11
421.395	10374.26
421.451	10534.06
421.508	10348.55
421.564	10244.77
421.621	9986.69
421.677	9925.62
421.734	9776.38
421.79	9673.06
421.846	9596.83
421.903	9348.86
421.959	9058.65
422.016	9035.69
422.072	9143.6
422.128	9107.32
422.185	8955.79
422.241	8930.53
422.297	8757.87
422.354	8945.22
422.41	8683.94
422.466	8471.79
422.523	8675.21
422.579	8418.06
422.635	8650.88
422.691	8188.92
422.748	8014.42
422.804	7941.87
422.86	8301.88
422.916	7864.26
422.972	7697.57
423.029	7650.28
423.085	7703.08
423.141	7734.77
423.197	7655.33
423.253	7602.06
423.309	7568.54
423.365	7186.94
423.421	7329.29
423.477	7171.33
423.533	7327
423.589	6911.88
423.645	6983.51
423.701	6849.43
423.757	6732.33
423.813	6677.69
423.869	6661.61
423.925	6439.82
423.981	6544.52
424.037	6536.71
424.093	6476.1
424.149	6181.75
424.205	6252.01
424.261	6405.84
424.317	6215.73
424.373	6277.26
424.428	6382.88
424.484	6192.31
424.54	6123.43
424.596	6019.65
424.652	5851.58
424.708	6043.99
424.763	5847.45
424.819	5724.38
424.875	5651.83
424.931	5547.59
424.986	5761.12
425.042	5850.66
425.098	5908.06
425.153	5738.16
425.209	5784.54
425.265	5815.76
425.32	5700.5
425.376	5565.96
425.432	5540.24
425.487	5378.14
425.543	5354.72
425.598	5285.39
425.654	5363.91
425.709	5261.51
425.765	5170.58
425.82	5312.02
425.876	5267.48
425.932	5106.3
425.987	5098.95
426.042	5225.69
426.098	5208.7
426.153	5082.42
426.209	5077.37
426.264	5066.81
426.32	4921.7
426.375	4967.16
426.43	4998.38
426.486	4841.8
426.541	4923.99
426.597	4793.58
426.652	4864.3
426.707	4745.82
426.763	4629.19
426.818	4731.59
426.873	4688.42
426.928	4772.92
426.984	4722.86
427.039	4715.06
427.094	4775.67
427.149	4625.51
427.205	4492.34
427.26	4611.28
427.315	4548.83
427.37	4530.92
427.425	4594.75
427.48	4471.68
427.536	4372.95
427.591	4307.74
427.646	4378
427.701	4374.79
427.756	4286.62
427.811	4288.46
427.866	4240.24
427.921	4348.15
427.976	4300.4
428.031	4107.99
428.086	4069.42
428.141	4117.18
428.196	4239.32
428.251	4093.76
428.306	4031.3
428.361	4064.37
428.416	4142.89
428.471	4047.84
428.526	3933.49
428.581	3975.28
428.636	4018.45
428.691	3949.57
428.745	3982.63
428.8	3929.82
428.855	4071.71
428.91	3964.26
428.965	3906.4
429.02	3777.37
429.074	3782.88
429.129	3806.3
429.184	3844.87
429.239	3746.6
429.293	3818.69
429.348	3854.51
429.403	3819.15
429.457	3778.28
429.512	3671.75
429.567	3581.75
429.621	3601.03
429.676	3693.33
429.731	3653.38
429.785	3562.46
429.84	3559.25
429.895	3530.32
429.949	3655.68
430.004	3450.41
430.058	3455.47
430.113	3464.65
430.167	3441.23
430.222	3428.37
430.276	3454.09
430.331	3494.96
430.385	3417.35
430.44	3277.75
430.494	3385.21
430.549	3353.98
430.603	3335.15
430.657	3186.37
430.712	3156.98
430.766	3101.42
430.821	3173.52
430.875	3131.73
430.929	3165.25
430.984	3136.78
431.038	3291.07
431.092	3079.84
431.147	3146.42
431.201	3216.22
431.255	3060.09
431.309	2954.02
431.364	2911.77
431.418	2926.92
431.472	2934.27
431.526	2946.21
431.581	2958.61
431.635	2811.66
431.689	2841.51
431.743	2741.87
431.797	2777.22
431.851	2701.92
431.906	2696.4
431.96	2727.63
432.014	2750.13
432.068	2632.12
432.122	2617.42
432.176	2569.21
432.23	2603.65
432.284	2542.57
432.338	2512.72
432.392	2459.46
432.446	2442.93
432.5	2547.62
432.554	2487.01
432.608	2462.67
432.662	2458.54
432.716	2409.86
432.77	2279.45
432.824	2297.82
432.878	2243.17
432.931	2217.46
432.985	2336.39
433.039	2163.27
433.093	2142.61
433.147	2301.95
433.201	2198.63
433.254	2062.25
433.308	2111.84
433.362	2145.82
433.416	2344.2
433.47	2138.93
433.523	2131.59
433.577	2153.17
433.631	2040.66
433.684	2038.37
433.738	2058.57
433.792	2070.05
433.846	1996.12
433.899	1949.28
433.953	1836.78
434.006	1988.77
434.06	1886.37
434.114	1855.15
434.167	1855.15
434.221	1855.15
