Data from FLMS155811_12-37-58-995.txt Node
Date: Mon Mar 23 12:37:58 MDT 2020
User: ECEn Student
Spectrometer: FLMS15581
Trigger mode: 0
Integration Time (sec): 1.200000E-1
Scans to average: 1
Electric dark correction enabled: true
Nonlinearity correction enabled: false
Boxcar width: 0
XAxis mode: Wavelengths
Number of Pixels in Spectrum: 2048
>>>>>Begin Spectral Data<<<<<
298.026	-38.17
298.106	-38.17
298.185	-38.17
298.265	-22.1
298.344	-28.99
298.424	-26.69
298.503	-3.73
298.583	-58.84
298.662	-79.5
298.741	-86.39
298.821	-72.61
298.9	-24.4
298.98	-38.17
299.059	-28.99
299.138	-6.03
299.217	42.19
299.297	67.45
299.376	46.78
299.455	19.23
299.535	127.14
299.614	122.55
299.693	186.84
299.772	143.21
299.852	147.81
299.931	170.77
300.01	232.76
300.089	237.35
300.168	320.01
300.247	239.65
300.327	342.97
300.406	251.13
300.485	340.67
300.564	345.26
300.643	322.3
300.722	352.15
300.801	347.56
300.88	441.69
300.959	379.7
301.038	427.92
301.117	370.52
301.196	372.81
301.275	354.45
301.354	443.99
301.433	462.36
301.512	388.89
301.591	416.44
301.67	439.4
301.749	476.13
301.828	365.93
301.907	407.25
301.985	333.78
302.064	354.45
302.143	363.63
302.222	377.41
302.301	411.85
302.38	352.15
302.458	333.78
302.537	407.25
302.616	377.41
302.695	322.3
302.773	342.97
302.852	324.6
302.931	365.93
303.01	349.85
303.088	386.59
303.167	411.85
303.246	347.56
303.324	441.69
303.403	372.81
303.481	363.63
303.56	391.18
303.639	409.55
303.717	363.63
303.796	333.78
303.874	421.03
303.953	324.6
304.032	370.52
304.11	347.56
304.189	333.78
304.267	400.37
304.346	352.15
304.424	324.6
304.502	359.04
304.581	361.33
304.659	292.45
304.738	342.97
304.816	342.97
304.895	322.3
304.973	310.82
305.051	368.22
305.13	352.15
305.208	352.15
305.286	345.26
305.365	349.85
305.443	368.22
305.521	393.48
305.6	352.15
305.678	421.03
305.756	359.04
305.834	395.77
305.913	377.41
305.991	338.37
306.069	345.26
306.147	460.06
306.225	427.92
306.304	395.77
306.382	418.73
306.46	370.52
306.538	313.12
306.616	338.37
306.694	391.18
306.772	370.52
306.85	471.54
306.929	354.45
307.007	354.45
307.085	398.07
307.163	333.78
307.241	407.25
307.319	342.97
307.397	329.19
307.475	347.56
307.553	361.33
307.631	439.4
307.709	347.56
307.786	391.18
307.864	386.59
307.942	287.86
308.02	409.55
308.098	326.89
308.176	430.21
308.254	340.67
308.332	306.23
308.409	365.93
308.487	361.33
308.565	409.55
308.643	349.85
308.721	421.03
308.798	414.14
308.876	365.93
308.954	356.74
309.032	386.59
309.109	391.18
309.187	363.63
309.265	359.04
309.342	340.67
309.42	377.41
309.498	310.82
309.575	375.11
309.653	308.53
309.731	423.33
309.808	336.08
309.886	363.63
309.963	372.81
310.041	393.48
310.119	423.33
310.196	361.33
310.274	310.82
310.351	347.56
310.429	391.18
310.506	382
310.584	393.48
310.661	432.51
310.738	404.96
310.816	398.07
310.893	434.81
310.971	404.96
311.048	391.18
311.126	345.26
311.203	338.37
311.28	411.85
311.358	363.63
311.435	393.48
311.512	370.52
311.59	404.96
311.667	409.55
311.744	416.44
311.821	409.55
311.899	402.66
311.976	368.22
312.053	402.66
312.13	439.4
312.208	370.52
312.285	386.59
312.362	382
312.439	437.1
312.516	391.18
312.593	342.97
312.671	469.25
312.748	421.03
312.825	384.29
312.902	411.85
312.979	398.07
313.056	423.33
313.133	404.96
313.21	400.37
313.287	363.63
313.364	453.17
313.441	359.04
313.518	336.08
313.595	434.81
313.672	342.97
313.749	352.15
313.826	386.59
313.903	388.89
313.98	365.93
314.057	379.7
314.134	338.37
314.211	382
314.287	402.66
314.364	391.18
314.441	352.15
314.518	409.55
314.595	466.95
314.672	345.26
314.748	393.48
314.825	338.37
314.902	393.48
314.979	345.26
315.055	342.97
315.132	409.55
315.209	386.59
315.286	423.33
315.362	370.52
315.439	448.58
315.516	425.62
315.592	423.33
315.669	326.89
315.746	342.97
315.822	427.92
315.899	388.89
315.975	400.37
316.052	407.25
316.128	421.03
316.205	361.33
316.282	398.07
316.358	356.74
316.435	407.25
316.511	386.59
316.588	434.81
316.664	370.52
316.741	409.55
316.817	398.07
316.893	372.81
316.97	361.33
317.046	338.37
317.123	393.48
317.199	407.25
317.275	443.99
317.352	370.52
317.428	423.33
317.504	409.55
317.581	402.66
317.657	421.03
317.733	320.01
317.81	326.89
317.886	411.85
317.962	359.04
318.038	450.88
318.115	395.77
318.191	379.7
318.267	363.63
318.343	404.96
318.419	391.18
318.496	368.22
318.572	365.93
318.648	365.93
318.724	317.71
318.8	388.89
318.876	368.22
318.952	437.1
319.028	382
319.105	370.52
319.181	402.66
319.257	400.37
319.333	411.85
319.409	379.7
319.485	407.25
319.561	404.96
319.637	439.4
319.713	400.37
319.789	411.85
319.865	342.97
319.94	427.92
320.016	322.3
320.092	384.29
320.168	363.63
320.244	402.66
320.32	416.44
320.396	345.26
320.472	308.53
320.547	393.48
320.623	414.14
320.699	393.48
320.775	379.7
320.851	388.89
320.926	395.77
321.002	427.92
321.078	427.92
321.154	365.93
321.229	375.11
321.305	409.55
321.381	476.13
321.456	301.64
321.532	427.92
321.608	460.06
321.683	384.29
321.759	483.02
321.835	377.41
321.91	393.48
321.986	418.73
322.061	340.67
322.137	370.52
322.212	400.37
322.288	382
322.364	398.07
322.439	391.18
322.515	370.52
322.59	439.4
322.666	430.21
322.741	402.66
322.816	393.48
322.892	379.7
322.967	404.96
323.043	377.41
323.118	404.96
323.193	460.06
323.269	485.32
323.344	423.33
323.42	359.04
323.495	432.51
323.57	450.88
323.646	377.41
323.721	404.96
323.796	464.65
323.871	404.96
323.947	400.37
324.022	395.77
324.097	441.69
324.172	421.03
324.248	437.1
324.323	425.62
324.398	437.1
324.473	395.77
324.548	382
324.623	430.21
324.699	347.56
324.774	425.62
324.849	359.04
324.924	411.85
324.999	414.14
325.074	423.33
325.149	375.11
325.224	386.59
325.299	404.96
325.374	386.59
325.449	418.73
325.524	404.96
325.599	354.45
325.674	418.73
325.749	414.14
325.824	398.07
325.899	391.18
325.974	361.33
326.049	407.25
326.124	473.84
326.199	393.48
326.273	398.07
326.348	421.03
326.423	421.03
326.498	430.21
326.573	441.69
326.648	443.99
326.722	395.77
326.797	441.69
326.872	404.96
326.947	460.06
327.021	375.11
327.096	455.47
327.171	359.04
327.245	418.73
327.32	377.41
327.395	395.77
327.47	430.21
327.544	441.69
327.619	398.07
327.693	368.22
327.768	441.69
327.843	446.29
327.917	414.14
327.992	352.15
328.066	377.41
328.141	446.29
328.215	411.85
328.29	363.63
328.364	439.4
328.439	404.96
328.513	508.28
328.588	450.88
328.662	430.21
328.737	446.29
328.811	441.69
328.886	508.28
328.96	308.53
329.035	395.77
329.109	407.25
329.183	450.88
329.258	379.7
329.332	411.85
329.406	423.33
329.481	393.48
329.555	377.41
329.629	388.89
329.704	354.45
329.778	382
329.852	391.18
329.926	382
330.001	425.62
330.075	393.48
330.149	411.85
330.223	421.03
330.297	402.66
330.372	393.48
330.446	414.14
330.52	363.63
330.594	423.33
330.668	414.14
330.742	414.14
330.816	418.73
330.89	398.07
330.964	418.73
331.038	423.33
331.113	418.73
331.187	402.66
331.261	361.33
331.335	434.81
331.409	464.65
331.483	457.77
331.557	414.14
331.63	430.21
331.704	407.25
331.778	480.73
331.852	372.81
331.926	450.88
332	404.96
332.074	549.61
332.148	471.54
332.222	448.58
332.295	349.85
332.369	473.84
332.443	427.92
332.517	434.81
332.591	409.55
332.665	354.45
332.738	439.4
332.812	379.7
332.886	443.99
332.959	466.95
333.033	407.25
333.107	455.47
333.181	361.33
333.254	370.52
333.328	382
333.402	333.78
333.475	453.17
333.549	462.36
333.622	398.07
333.696	388.89
333.77	370.52
333.843	384.29
333.917	457.77
333.99	512.87
334.064	407.25
334.137	379.7
334.211	423.33
334.284	423.33
334.358	345.26
334.431	393.48
334.505	375.11
334.578	441.69
334.652	349.85
334.725	430.21
334.799	427.92
334.872	404.96
334.945	377.41
335.019	469.25
335.092	377.41
335.165	421.03
335.239	395.77
335.312	423.33
335.385	414.14
335.459	437.1
335.532	437.1
335.605	455.47
335.678	446.29
335.752	519.76
335.825	421.03
335.898	453.17
335.971	430.21
336.045	411.85
336.118	402.66
336.191	455.47
336.264	411.85
336.337	404.96
336.41	418.73
336.483	432.51
336.557	411.85
336.63	464.65
336.703	386.59
336.776	466.95
336.849	469.25
336.922	432.51
336.995	384.29
337.068	437.1
337.141	473.84
337.214	427.92
337.287	450.88
337.36	441.69
337.433	379.7
337.506	402.66
337.579	453.17
337.652	496.8
337.725	372.81
337.797	398.07
337.87	460.06
337.943	384.29
338.016	423.33
338.089	457.77
338.162	356.74
338.235	359.04
338.307	505.98
338.38	441.69
338.453	363.63
338.526	441.69
338.598	469.25
338.671	446.29
338.744	437.1
338.817	453.17
338.889	437.1
338.962	446.29
339.035	485.32
339.107	439.4
339.18	443.99
339.253	453.17
339.325	352.15
339.398	460.06
339.47	414.14
339.543	425.62
339.616	443.99
339.688	476.13
339.761	469.25
339.833	414.14
339.906	466.95
339.978	430.21
340.051	446.29
340.123	460.06
340.196	432.51
340.268	423.33
340.341	464.65
340.413	416.44
340.485	450.88
340.558	404.96
340.63	409.55
340.703	462.36
340.775	494.5
340.847	473.84
340.92	437.1
340.992	434.81
341.064	416.44
341.137	432.51
341.209	416.44
341.281	421.03
341.354	388.89
341.426	489.91
341.498	441.69
341.57	476.13
341.643	427.92
341.715	393.48
341.787	457.77
341.859	409.55
341.931	446.29
342.003	443.99
342.076	524.35
342.148	427.92
342.22	457.77
342.292	453.17
342.364	466.95
342.436	414.14
342.508	476.13
342.58	464.65
342.652	457.77
342.724	437.1
342.796	423.33
342.868	455.47
342.94	462.36
343.012	450.88
343.084	494.5
343.156	473.84
343.228	457.77
343.3	402.66
343.372	460.06
343.444	450.88
343.516	398.07
343.588	418.73
343.66	427.92
343.731	404.96
343.803	483.02
343.875	416.44
343.947	480.73
344.019	512.87
344.09	418.73
344.162	462.36
344.234	439.4
344.306	471.54
344.377	446.29
344.449	508.28
344.521	457.77
344.593	450.88
344.664	453.17
344.736	448.58
344.808	466.95
344.879	404.96
344.951	455.47
345.023	503.69
345.094	464.65
345.166	354.45
345.237	510.58
345.309	434.81
345.38	423.33
345.452	476.13
345.524	416.44
345.595	508.28
345.667	466.95
345.738	441.69
345.81	542.72
345.881	476.13
345.953	485.32
346.024	483.02
346.095	418.73
346.167	427.92
346.238	496.8
346.31	469.25
346.381	448.58
346.452	453.17
346.524	443.99
346.595	551.9
346.666	519.76
346.738	478.43
346.809	462.36
346.88	494.5
346.952	455.47
347.023	526.65
347.094	469.25
347.165	526.65
347.237	441.69
347.308	462.36
347.379	462.36
347.45	423.33
347.521	411.85
347.593	473.84
347.664	471.54
347.735	526.65
347.806	492.21
347.877	510.58
347.948	443.99
348.019	434.81
348.09	443.99
348.161	531.24
348.233	485.32
348.304	499.1
348.375	545.02
348.446	508.28
348.517	483.02
348.588	478.43
348.659	421.03
348.73	439.4
348.801	462.36
348.871	489.91
348.942	469.25
349.013	524.35
349.084	528.94
349.155	512.87
349.226	453.17
349.297	501.39
349.368	487.62
349.439	512.87
349.509	478.43
349.58	485.32
349.651	503.69
349.722	473.84
349.793	501.39
349.863	478.43
349.934	528.94
350.005	464.65
350.076	567.98
350.146	554.2
350.217	483.02
350.288	526.65
350.358	526.65
350.429	455.47
350.5	540.42
350.57	508.28
350.641	503.69
350.711	549.61
350.782	535.83
350.853	505.98
350.923	512.87
350.994	538.13
351.064	510.58
351.135	540.42
351.205	570.27
351.276	519.76
351.346	545.02
351.417	632.26
351.487	524.35
351.558	533.54
351.628	641.45
351.699	567.98
351.769	561.09
351.84	629.97
351.91	634.56
351.98	662.11
352.051	602.42
352.121	652.93
352.191	664.41
352.262	726.4
352.332	735.58
352.402	650.63
352.473	708.03
352.543	806.76
352.613	767.73
352.683	763.14
352.754	786.1
352.824	845.79
352.894	832.02
352.964	907.78
353.035	841.2
353.105	949.11
353.175	919.26
353.245	1027.18
353.315	992.74
353.385	967.48
353.455	1063.91
353.526	1148.87
353.596	1148.87
353.666	1203.97
353.736	1197.08
353.806	1291.22
353.876	1286.63
353.946	1373.87
354.016	1406.02
354.086	1523.12
354.156	1472.6
354.226	1617.25
354.296	1582.81
354.366	1686.13
354.436	1750.42
354.506	1839.96
354.576	1869.81
354.645	1862.92
354.715	1973.13
354.785	1977.73
354.855	2170.59
354.925	2188.96
354.995	2333.61
355.065	2397.89
355.134	2556.32
355.204	2560.91
355.274	2666.53
355.344	2714.74
355.414	2829.54
355.483	3001.75
355.553	3109.66
355.623	3323.19
355.693	3405.84
355.762	3545.9
355.832	3614.78
355.902	3736.47
355.971	3871.93
356.041	4005.1
356.111	4243.89
356.18	4237
356.25	4597.47
356.319	4654.87
356.389	4854.63
356.459	4872.99
356.528	5137.03
356.598	5329.9
356.667	5474.55
356.737	5729.4
356.806	5835.02
356.876	6161.05
356.945	6179.42
357.015	6324.07
357.084	6686.84
357.154	6987.62
357.223	7081.75
357.292	7389.42
357.362	7515.7
357.431	7862.4
357.501	8023.12
357.57	8289.46
357.639	8649.93
357.709	8833.61
357.778	9033.36
357.847	9522.41
357.917	9724.46
357.986	9910.44
358.055	10052.79
358.124	10606.13
358.194	10640.57
358.263	11127.32
358.332	11545.2
358.401	11836.79
358.471	12215.63
358.54	12360.28
358.609	12700.09
358.678	13170.77
358.747	13386.6
358.816	13919.27
358.886	14148.87
358.955	14621.85
359.024	14924.92
359.093	15253.25
359.162	15638.98
359.231	16066.04
359.3	16394.37
359.369	16743.36
359.438	17285.22
359.507	17510.23
359.576	18114.08
359.645	18607.72
359.714	18796
359.783	19167.95
359.852	19615.67
359.921	20602.95
359.99	20788.93
360.059	20901.44
360.128	21666.01
360.197	22070.1
360.266	22660.18
360.334	23229.59
360.403	23737.01
360.472	24021.71
360.541	24894.2
360.61	25259.26
360.679	25640.4
360.747	26287.87
360.816	27018.01
360.885	27045.56
360.954	27582.82
361.022	28411.68
361.091	28942.06
361.16	29408.15
361.228	29738.78
361.297	30760.5
361.366	31306.95
361.434	31968.2
361.503	32507.76
361.572	33026.66
361.64	33690.21
361.709	34473.15
361.778	35400.74
361.846	35334.15
361.915	36117.09
361.983	36808.19
362.052	37662.31
362.12	38231.72
362.189	38686.33
362.257	39737.9
362.326	39992.75
362.394	40667.78
362.463	41604.55
362.531	41818.08
362.6	42334.68
362.668	43131.4
362.737	43850.05
362.805	44479.16
362.873	45321.79
362.942	45891.2
363.01	47176.97
363.079	47351.47
363.147	47734.9
363.215	48409.93
363.284	49195.16
363.352	49576.3
363.42	50099.79
363.488	50800.07
363.557	51215.65
363.625	51645
363.693	52152.42
363.761	52579.48
363.83	53252.21
363.898	53610.39
363.966	54083.37
364.034	54055.81
364.102	54393.33
364.171	55006.36
364.239	55020.14
364.307	55826.04
364.375	55844.4
364.443	56365.6
364.511	56608.98
364.579	56776.58
364.647	57449.32
364.715	57380.44
364.783	57724.84
364.851	58140.41
364.919	58365.42
364.987	58519.26
365.055	58663.9
365.123	58863.66
365.191	59180.51
365.259	59260.87
365.327	59439.96
365.395	59704
365.463	59850.94
365.531	59968.04
365.599	60319.33
365.667	60427.24
365.735	60606.33
365.802	60716.54
365.87	60640.77
365.938	60592.55
366.006	60838.23
366.074	61299.72
366.142	60955.32
366.209	61129.82
366.277	61288.24
366.345	61476.52
366.413	61256.1
366.48	61382.38
366.548	61616.57
366.616	61609.68
366.683	61497.18
366.751	61855.36
366.819	61940.31
366.886	61919.65
366.954	61986.23
367.022	61795.66
367.089	61488
367.157	61775
367.224	61566.06
367.292	62091.85
367.36	61894.39
367.427	61832.4
367.495	61903.57
367.562	61756.63
367.63	61621.16
367.697	61582.13
367.765	61660.2
367.832	61733.67
367.9	61421.41
367.967	61439.78
368.034	61357.12
368.102	61327.28
368.169	61437.48
368.237	61240.03
368.304	61129.82
368.371	61083.9
368.439	60948.43
368.506	60998.95
368.573	60927.77
368.641	60734.91
368.708	60404.28
368.775	60567.3
368.843	60578.78
368.91	60211.41
368.977	60179.27
369.044	60064.47
369.112	59862.42
369.179	59954.26
369.246	59738.44
369.313	59827.98
369.38	59738.44
369.448	59651.19
369.515	59439.96
369.582	59396.33
369.649	59258.57
369.716	59382.56
369.783	59297.6
369.85	59077.19
369.917	58927.95
369.984	58904.99
370.052	58833.81
370.119	58670.79
370.186	58528.44
370.253	58776.41
370.32	58686.86
370.387	58576.66
370.454	58330.98
370.521	58503.18
370.587	58255.21
370.654	58241.44
370.721	58397.57
370.788	58174.85
370.855	57773.05
370.922	57929.18
370.989	57844.23
371.056	57821.27
371.123	57550.34
371.189	57114.1
371.256	56902.87
371.323	56416.11
371.39	56358.71
371.457	56126.81
371.523	55669.91
371.59	54930.59
371.657	54811.2
371.724	54450.73
371.79	53610.39
371.857	52659.84
371.924	52198.34
371.991	50788.59
372.057	49144.65
372.124	48416.81
372.191	46752.21
372.257	45234.54
372.324	43551.57
372.39	41374.95
372.457	39804.48
372.524	37676.08
372.59	35779.58
372.657	33426.17
372.723	31786.82
372.79	29532.14
372.856	27665.48
372.923	26078.94
372.989	24193.91
373.056	22432.87
373.122	20961.13
373.189	19372.29
373.255	17792.64
373.322	16428.81
373.388	15312.95
373.454	14183.31
373.521	13058.27
373.587	12236.3
373.654	11219.16
373.72	10316.83
373.786	9256.08
373.853	8629.26
373.919	8158.58
373.985	7396.31
374.052	6785.57
374.118	6333.26
374.184	5926.86
374.25	5449.29
374.317	5169.18
374.383	4716.86
374.449	4342.62
374.515	4048.73
374.581	3865.05
374.648	3509.16
374.714	3442.58
374.78	3311.71
374.846	2976.49
374.912	2719.34
374.978	2691.78
375.044	2416.26
375.11	2276.21
375.177	2182.07
375.243	2117.78
375.309	2048.9
375.375	1856.04
375.441	1741.24
375.507	1693.02
375.573	1771.08
375.639	1589.7
375.705	1520.82
375.771	1454.24
375.837	1412.91
375.903	1236.11
375.968	1194.79
376.034	1252.19
376.1	1192.49
376.166	1167.23
376.232	1050.14
376.298	974.37
376.364	1036.36
376.43	988.15
376.495	956
376.561	953.7
376.627	923.86
376.693	914.67
376.759	852.68
376.824	933.04
376.89	818.24
376.956	783.8
377.022	834.31
377.087	786.1
377.153	779.21
377.219	758.54
377.284	678.18
377.35	735.58
377.416	728.7
377.481	740.18
377.547	710.33
377.613	753.95
377.678	717.22
377.744	678.18
377.809	687.37
377.875	641.45
377.94	662.11
378.006	634.56
378.071	689.66
378.137	629.97
378.202	680.48
378.268	579.46
378.333	620.78
378.399	593.23
378.464	600.12
378.53	602.42
378.595	620.78
378.661	590.94
378.726	600.12
378.791	586.34
378.857	604.71
378.922	563.38
378.987	545.02
379.053	636.86
379.118	565.68
379.183	565.68
379.249	512.87
379.314	549.61
379.379	503.69
379.444	540.42
379.51	522.06
379.575	538.13
379.64	505.98
379.705	533.54
379.771	524.35
379.836	556.5
379.901	618.49
379.966	561.09
380.031	469.25
380.096	515.17
380.161	494.5
380.227	499.1
380.292	538.13
380.357	533.54
380.422	510.58
380.487	556.5
380.552	466.95
380.617	439.4
380.682	473.84
380.747	545.02
380.812	434.81
380.877	496.8
380.942	524.35
381.007	508.28
381.072	540.42
381.137	448.58
381.202	446.29
381.266	501.39
381.331	434.81
381.396	561.09
381.461	528.94
381.526	462.36
381.591	531.24
381.656	526.65
381.72	510.58
381.785	476.13
381.85	522.06
381.915	505.98
381.979	457.77
382.044	480.73
382.109	515.17
382.174	574.86
382.238	418.73
382.303	427.92
382.368	443.99
382.432	469.25
382.497	476.13
382.562	421.03
382.626	430.21
382.691	416.44
382.756	437.1
382.82	473.84
382.885	487.62
382.949	515.17
383.014	466.95
383.078	439.4
383.143	421.03
383.208	441.69
383.272	492.21
383.337	501.39
383.401	450.88
383.465	492.21
383.53	478.43
383.594	434.81
383.659	430.21
383.723	528.94
383.788	485.32
383.852	492.21
383.916	517.46
383.981	473.84
384.045	503.69
384.109	547.31
384.174	453.17
384.238	471.54
384.302	508.28
384.367	473.84
384.431	471.54
384.495	421.03
384.56	485.32
384.624	430.21
384.688	425.62
384.752	489.91
384.816	515.17
384.881	423.33
384.945	427.92
385.009	471.54
385.073	471.54
385.137	409.55
385.201	409.55
385.265	443.99
385.33	448.58
385.394	443.99
385.458	471.54
385.522	439.4
385.586	411.85
385.65	427.92
385.714	439.4
385.778	448.58
385.842	469.25
385.906	446.29
385.97	398.07
386.034	400.37
386.098	427.92
386.162	427.92
386.226	430.21
386.29	425.62
386.354	448.58
386.417	434.81
386.481	471.54
386.545	450.88
386.609	448.58
386.673	404.96
386.737	471.54
386.8	402.66
386.864	441.69
386.928	404.96
386.992	464.65
387.056	384.29
387.119	404.96
387.183	432.51
387.247	418.73
387.31	453.17
387.374	455.47
387.438	418.73
387.502	469.25
387.565	531.24
387.629	425.62
387.692	393.48
387.756	453.17
387.82	446.29
387.883	432.51
387.947	448.58
388.01	418.73
388.074	407.25
388.138	443.99
388.201	441.69
388.265	423.33
388.328	462.36
388.392	443.99
388.455	402.66
388.519	450.88
388.582	427.92
388.645	471.54
388.709	453.17
388.772	446.29
388.836	377.41
388.899	398.07
388.962	398.07
389.026	430.21
389.089	421.03
389.153	455.47
389.216	402.66
389.279	448.58
389.343	483.02
389.406	395.77
389.469	453.17
389.532	382
389.596	418.73
389.659	361.33
389.722	450.88
389.785	453.17
389.848	466.95
389.912	434.81
389.975	421.03
390.038	400.37
390.101	434.81
390.164	404.96
390.227	434.81
390.291	450.88
390.354	402.66
390.417	485.32
390.48	372.81
390.543	439.4
390.606	377.41
390.669	386.59
390.732	450.88
390.795	375.11
390.858	427.92
390.921	404.96
390.984	391.18
391.047	404.96
391.11	473.84
391.173	411.85
391.236	372.81
391.299	407.25
391.362	464.65
391.424	434.81
391.487	469.25
391.55	421.03
391.613	411.85
391.676	407.25
391.739	375.11
391.802	446.29
391.864	354.45
391.927	441.69
391.99	402.66
392.053	363.63
392.115	375.11
392.178	466.95
392.241	437.1
392.304	349.85
392.366	388.89
392.429	446.29
392.492	363.63
392.554	398.07
392.617	391.18
392.68	411.85
392.742	462.36
392.805	365.93
392.867	388.89
392.93	388.89
392.992	427.92
393.055	416.44
393.118	368.22
393.18	471.54
393.243	421.03
393.305	393.48
393.368	471.54
393.43	441.69
393.493	411.85
393.555	441.69
393.618	432.51
393.68	421.03
393.742	409.55
393.805	395.77
393.867	409.55
393.93	368.22
393.992	395.77
394.054	370.52
394.117	423.33
394.179	407.25
394.241	418.73
394.304	377.41
394.366	434.81
394.428	441.69
394.49	471.54
394.553	402.66
394.615	437.1
394.677	430.21
394.739	395.77
394.802	466.95
394.864	450.88
394.926	453.17
394.988	368.22
395.05	404.96
395.112	363.63
395.174	359.04
395.237	398.07
395.299	363.63
395.361	441.69
395.423	393.48
395.485	460.06
395.547	407.25
395.609	393.48
395.671	368.22
395.733	368.22
395.795	455.47
395.857	398.07
395.919	400.37
395.981	455.47
396.043	382
396.105	411.85
396.167	453.17
396.229	320.01
396.291	379.7
396.352	375.11
396.414	395.77
396.476	466.95
396.538	441.69
396.6	398.07
396.662	386.59
396.724	395.77
396.785	446.29
396.847	483.02
396.909	361.33
396.971	414.14
397.032	404.96
397.094	324.6
397.156	416.44
397.218	361.33
397.279	427.92
397.341	404.96
397.403	402.66
397.464	388.89
397.526	365.93
397.588	388.89
397.649	400.37
397.711	409.55
397.772	457.77
397.834	437.1
397.896	485.32
397.957	370.52
398.019	411.85
398.08	432.51
398.142	329.19
398.203	391.18
398.265	416.44
398.326	391.18
398.388	418.73
398.449	432.51
398.511	416.44
398.572	425.62
398.633	365.93
398.695	352.15
398.756	382
398.818	329.19
398.879	421.03
398.94	400.37
399.002	365.93
399.063	434.81
399.124	455.47
399.186	395.77
399.247	388.89
399.308	455.47
399.369	407.25
399.431	466.95
399.492	372.81
399.553	434.81
399.614	379.7
399.676	471.54
399.737	441.69
399.798	416.44
399.859	375.11
399.92	402.66
399.981	402.66
400.042	423.33
400.104	393.48
400.165	441.69
400.226	437.1
400.287	386.59
400.348	386.59
400.409	437.1
400.47	414.14
400.531	393.48
400.592	386.59
400.653	386.59
400.714	361.33
400.775	382
400.836	432.51
400.897	340.67
400.958	391.18
401.019	393.48
401.08	398.07
401.141	368.22
401.201	483.02
401.262	402.66
401.323	372.81
401.384	329.19
401.445	404.96
401.506	411.85
401.567	409.55
401.627	430.21
401.688	349.85
401.749	377.41
401.81	450.88
401.87	402.66
401.931	427.92
401.992	423.33
402.053	372.81
402.113	372.81
402.174	404.96
402.235	443.99
402.295	368.22
402.356	375.11
402.417	361.33
402.477	391.18
402.538	407.25
402.598	372.81
402.659	427.92
402.719	407.25
402.78	448.58
402.841	370.52
402.901	407.25
402.962	393.48
403.022	375.11
403.083	400.37
403.143	384.29
403.204	411.85
403.264	427.92
403.324	395.77
403.385	425.62
403.445	368.22
403.506	423.33
403.566	411.85
403.627	418.73
403.687	347.56
403.747	377.41
403.808	382
403.868	400.37
403.928	384.29
403.989	404.96
404.049	414.14
404.109	471.54
404.169	439.4
404.23	368.22
404.29	340.67
404.35	418.73
404.41	329.19
404.47	377.41
404.531	386.59
404.591	386.59
404.651	347.56
404.711	418.73
404.771	354.45
404.831	368.22
404.892	382
404.952	437.1
405.012	448.58
405.072	375.11
405.132	404.96
405.192	425.62
405.252	393.48
405.312	400.37
405.372	372.81
405.432	427.92
405.492	329.19
405.552	359.04
405.612	379.7
405.672	388.89
405.732	375.11
405.792	340.67
405.852	382
405.912	347.56
405.971	421.03
406.031	354.45
406.091	409.55
406.151	365.93
406.211	441.69
406.271	377.41
406.33	384.29
406.39	443.99
406.45	391.18
406.51	363.63
406.57	331.49
406.629	391.18
406.689	430.21
406.749	379.7
406.808	370.52
406.868	409.55
406.928	421.03
406.988	336.08
407.047	411.85
407.107	407.25
407.166	411.85
407.226	386.59
407.286	393.48
407.345	432.51
407.405	333.78
407.464	395.77
407.524	354.45
407.584	427.92
407.643	414.14
407.703	407.25
407.762	427.92
407.822	416.44
407.881	370.52
407.941	414.14
408	370.52
408.059	324.6
408.119	347.56
408.178	379.7
408.238	446.29
408.297	338.37
408.356	416.44
408.416	409.55
408.475	398.07
408.535	375.11
408.594	427.92
408.653	393.48
408.712	370.52
408.772	384.29
408.831	391.18
408.89	448.58
408.95	386.59
409.009	448.58
409.068	386.59
409.127	416.44
409.186	377.41
409.246	418.73
409.305	368.22
409.364	386.59
409.423	384.29
409.482	368.22
409.541	393.48
409.6	349.85
409.66	322.3
409.719	441.69
409.778	372.81
409.837	391.18
409.896	386.59
409.955	363.63
410.014	326.89
410.073	370.52
410.132	370.52
410.191	372.81
410.25	421.03
410.309	379.7
410.368	421.03
410.427	398.07
410.486	347.56
410.545	382
410.603	471.54
410.662	404.96
410.721	398.07
410.78	294.75
410.839	393.48
410.898	439.4
410.957	450.88
411.015	421.03
411.074	418.73
411.133	400.37
411.192	450.88
411.25	377.41
411.309	404.96
411.368	453.17
411.427	421.03
411.485	359.04
411.544	391.18
411.603	377.41
411.661	352.15
411.72	363.63
411.779	446.29
411.837	398.07
411.896	404.96
411.955	421.03
412.013	430.21
412.072	398.07
412.13	393.48
412.189	455.47
412.247	377.41
412.306	377.41
412.364	398.07
412.423	418.73
412.481	365.93
412.54	437.1
412.598	409.55
412.657	342.97
412.715	365.93
412.774	340.67
412.832	439.4
412.891	365.93
412.949	370.52
413.007	414.14
413.066	382
413.124	359.04
413.182	345.26
413.241	342.97
413.299	382
413.357	379.7
413.416	322.3
413.474	379.7
413.532	379.7
413.59	448.58
413.649	393.48
413.707	391.18
413.765	347.56
413.823	402.66
413.881	386.59
413.94	437.1
413.998	370.52
414.056	382
414.114	372.81
414.172	377.41
414.23	379.7
414.288	393.48
414.347	370.52
414.405	370.52
414.463	437.1
414.521	356.74
414.579	391.18
414.637	365.93
414.695	398.07
414.753	393.48
414.811	377.41
414.869	375.11
414.927	354.45
414.985	393.48
415.043	313.12
415.101	368.22
415.158	391.18
415.216	352.15
415.274	427.92
415.332	391.18
415.39	349.85
415.448	388.89
415.506	329.19
415.563	388.89
415.621	416.44
415.679	377.41
415.737	361.33
415.795	345.26
415.852	365.93
415.91	287.86
415.968	363.63
416.026	370.52
416.083	439.4
416.141	391.18
416.199	379.7
416.256	365.93
416.314	375.11
416.372	409.55
416.429	379.7
416.487	398.07
416.544	400.37
416.602	414.14
416.66	361.33
416.717	402.66
416.775	333.78
416.832	379.7
416.89	404.96
416.947	365.93
417.005	377.41
417.062	393.48
417.12	393.48
417.177	340.67
417.235	386.59
417.292	354.45
417.35	382
417.407	313.12
417.464	395.77
417.522	404.96
417.579	352.15
417.637	365.93
417.694	400.37
417.751	391.18
417.809	340.67
417.866	407.25
417.923	423.33
417.981	379.7
418.038	407.25
418.095	386.59
418.152	347.56
418.21	336.08
418.267	471.54
418.324	375.11
418.381	404.96
418.438	377.41
418.496	365.93
418.553	342.97
418.61	427.92
418.667	432.51
418.724	473.84
418.781	336.08
418.838	379.7
418.895	402.66
418.952	372.81
419.01	375.11
419.067	365.93
419.124	356.74
419.181	427.92
419.238	398.07
419.295	377.41
419.352	349.85
419.409	446.29
419.466	384.29
419.523	370.52
419.579	377.41
419.636	354.45
419.693	398.07
419.75	395.77
419.807	370.52
419.864	372.81
419.921	365.93
419.978	356.74
420.034	340.67
420.091	379.7
420.148	425.62
420.205	377.41
420.262	418.73
420.318	377.41
420.375	370.52
420.432	361.33
420.489	345.26
420.545	384.29
420.602	391.18
420.659	329.19
420.715	338.37
420.772	361.33
420.829	400.37
420.885	361.33
420.942	395.77
420.999	331.49
421.055	421.03
421.112	356.74
421.168	320.01
421.225	391.18
421.282	345.26
421.338	418.73
421.395	391.18
421.451	404.96
421.508	338.37
421.564	407.25
421.621	398.07
421.677	365.93
421.734	363.63
421.79	382
421.846	384.29
421.903	361.33
421.959	377.41
422.016	430.21
422.072	425.62
422.128	400.37
422.185	407.25
422.241	354.45
422.297	391.18
422.354	365.93
422.41	421.03
422.466	407.25
422.523	379.7
422.579	425.62
422.635	386.59
422.691	336.08
422.748	434.81
422.804	356.74
422.86	361.33
422.916	377.41
422.972	347.56
423.029	430.21
423.085	313.12
423.141	329.19
423.197	391.18
423.253	359.04
423.309	404.96
423.365	437.1
423.421	455.47
423.477	393.48
423.533	423.33
423.589	418.73
423.645	361.33
423.701	421.03
423.757	427.92
423.813	354.45
423.869	425.62
423.925	338.37
423.981	349.85
424.037	356.74
424.093	338.37
424.149	388.89
424.205	414.14
424.261	427.92
424.317	349.85
424.373	395.77
424.428	379.7
424.484	395.77
424.54	384.29
424.596	368.22
424.652	363.63
424.708	384.29
424.763	418.73
424.819	368.22
424.875	336.08
424.931	365.93
424.986	340.67
425.042	384.29
425.098	382
425.153	361.33
425.209	409.55
425.265	382
425.32	460.06
425.376	352.15
425.432	393.48
425.487	361.33
425.543	333.78
425.598	414.14
425.654	365.93
425.709	322.3
425.765	393.48
425.82	379.7
425.876	326.89
425.932	377.41
425.987	299.34
426.042	363.63
426.098	407.25
426.153	342.97
426.209	303.93
426.264	425.62
426.32	361.33
426.375	342.97
426.43	370.52
426.486	368.22
426.541	416.44
426.597	393.48
426.652	333.78
426.707	324.6
426.763	377.41
426.818	365.93
426.873	372.81
426.928	379.7
426.984	320.01
427.039	363.63
427.094	400.37
427.149	393.48
427.205	393.48
427.26	340.67
427.315	352.15
427.37	347.56
427.425	317.71
427.48	368.22
427.536	414.14
427.591	297.05
427.646	386.59
427.701	333.78
427.756	386.59
427.811	354.45
427.866	407.25
427.921	432.51
427.976	411.85
428.031	409.55
428.086	356.74
428.141	370.52
428.196	423.33
428.251	313.12
428.306	421.03
428.361	487.62
428.416	370.52
428.471	437.1
428.526	336.08
428.581	368.22
428.636	372.81
428.691	379.7
428.745	375.11
428.8	338.37
428.855	331.49
428.91	370.52
428.965	388.89
429.02	336.08
429.074	331.49
429.129	377.41
429.184	388.89
429.239	411.85
429.293	338.37
429.348	372.81
429.403	354.45
429.457	421.03
429.512	372.81
429.567	450.88
429.621	352.15
429.676	306.23
429.731	345.26
429.785	379.7
429.84	404.96
429.895	384.29
429.949	365.93
430.004	398.07
430.058	398.07
430.113	437.1
430.167	382
430.222	427.92
430.276	398.07
430.331	352.15
430.385	338.37
430.44	365.93
430.494	421.03
430.549	421.03
430.603	425.62
430.657	423.33
430.712	395.77
430.766	391.18
430.821	400.37
430.875	338.37
430.929	363.63
430.984	340.67
431.038	379.7
431.092	407.25
431.147	400.37
431.201	333.78
431.255	354.45
431.309	370.52
431.364	402.66
431.418	347.56
431.472	329.19
431.526	393.48
431.581	297.05
431.635	345.26
431.689	409.55
431.743	423.33
431.797	317.71
431.851	375.11
431.906	393.48
431.96	356.74
432.014	382
432.068	365.93
432.122	359.04
432.176	363.63
432.23	372.81
432.284	329.19
432.338	382
432.392	386.59
432.446	384.29
432.5	347.56
432.554	336.08
432.608	370.52
432.662	382
432.716	386.59
432.77	437.1
432.824	352.15
432.878	352.15
432.931	443.99
432.985	331.49
433.039	434.81
433.093	347.56
433.147	352.15
433.201	407.25
433.254	349.85
433.308	329.19
433.362	386.59
433.416	361.33
433.47	338.37
433.523	395.77
433.577	391.18
433.631	395.77
433.684	379.7
433.738	400.37
433.792	427.92
433.846	306.23
433.899	391.18
433.953	320.01
434.006	365.93
434.06	434.81
434.114	320.01
434.167	320.01
434.221	320.01
