Data from FLMS155811_14-52-30-926.txt Node
Date: Tue Mar 24 14:52:30 MDT 2020
User: ECEn Student
Spectrometer: FLMS15581
Trigger mode: 0
Integration Time (sec): 8.000000E-2
Scans to average: 1
Electric dark correction enabled: true
Nonlinearity correction enabled: false
Boxcar width: 0
XAxis mode: Wavelengths
Number of Pixels in Spectrum: 2048
>>>>>Begin Spectral Data<<<<<
298.026	-21.38
298.106	-21.38
298.185	-21.38
298.265	-35.16
298.344	-71.89
298.424	-0.72
298.503	-67.3
298.583	-92.56
298.662	-90.26
298.741	-131.59
298.821	-35.16
298.9	-42.05
298.98	-16.79
299.059	-12.2
299.138	-0.72
299.217	-3.01
299.297	114.08
299.376	61.27
299.455	100.31
299.535	116.38
299.614	100.31
299.693	141.64
299.772	123.27
299.852	203.63
299.931	123.27
300.01	116.38
300.089	247.25
300.168	270.21
300.247	263.32
300.327	320.72
300.406	274.8
300.485	258.73
300.564	283.99
300.643	297.76
300.722	327.61
300.801	327.61
300.88	244.96
300.959	355.16
301.038	357.46
301.117	407.97
301.196	371.24
301.275	348.28
301.354	352.87
301.433	364.35
301.512	412.56
301.591	394.2
301.67	387.31
301.749	366.64
301.828	394.2
301.907	378.12
301.985	378.12
302.064	396.49
302.143	364.35
302.222	364.35
302.301	387.31
302.38	364.35
302.458	345.98
302.537	306.95
302.616	357.46
302.695	378.12
302.773	334.5
302.852	320.72
302.931	366.64
303.01	341.39
303.088	405.68
303.167	329.91
303.246	359.76
303.324	373.53
303.403	364.35
303.481	378.12
303.56	313.84
303.639	332.2
303.717	385.01
303.796	320.72
303.874	336.8
303.953	318.43
304.032	295.47
304.11	378.12
304.189	341.39
304.267	334.5
304.346	352.87
304.424	391.9
304.502	304.65
304.581	332.2
304.659	293.17
304.738	334.5
304.816	339.09
304.895	323.02
304.973	304.65
305.051	364.35
305.13	325.32
305.208	350.57
305.286	345.98
305.365	373.53
305.443	348.28
305.521	357.46
305.6	290.88
305.678	306.95
305.756	339.09
305.834	355.16
305.913	382.72
305.991	316.13
306.069	398.79
306.147	309.24
306.225	362.05
306.304	343.68
306.382	389.6
306.46	316.13
306.538	302.36
306.616	385.01
306.694	343.68
306.772	352.87
306.85	380.42
306.929	368.94
307.007	359.76
307.085	339.09
307.163	366.64
307.241	334.5
307.319	332.2
307.397	336.8
307.475	368.94
307.553	332.2
307.631	357.46
307.709	309.24
307.786	357.46
307.864	323.02
307.942	405.68
308.02	387.31
308.098	366.64
308.176	378.12
308.254	300.06
308.332	327.61
308.409	332.2
308.487	336.8
308.565	382.72
308.643	407.97
308.721	325.32
308.798	355.16
308.876	357.46
308.954	343.68
309.032	366.64
309.109	352.87
309.187	380.42
309.265	368.94
309.342	371.24
309.42	327.61
309.498	339.09
309.575	375.83
309.653	355.16
309.731	403.38
309.808	348.28
309.886	350.57
309.963	373.53
310.041	371.24
310.119	341.39
310.196	405.68
310.274	341.39
310.351	371.24
310.429	440.12
310.506	304.65
310.584	355.16
310.661	368.94
310.738	343.68
310.816	373.53
310.893	378.12
310.971	394.2
311.048	341.39
311.126	329.91
311.203	403.38
311.28	373.53
311.358	396.49
311.435	313.84
311.512	341.39
311.59	336.8
311.667	362.05
311.744	410.27
311.821	350.57
311.899	410.27
311.976	306.95
312.053	371.24
312.13	339.09
312.208	350.57
312.285	412.56
312.362	366.64
312.439	398.79
312.516	368.94
312.593	378.12
312.671	410.27
312.748	410.27
312.825	375.83
312.902	341.39
312.979	391.9
313.056	375.83
313.133	320.72
313.21	382.72
313.287	373.53
313.364	389.6
313.441	345.98
313.518	336.8
313.595	348.28
313.672	339.09
313.749	398.79
313.826	325.32
313.903	343.68
313.98	401.08
314.057	387.31
314.134	362.05
314.211	385.01
314.287	357.46
314.364	375.83
314.441	401.08
314.518	403.38
314.595	428.64
314.672	341.39
314.748	433.23
314.825	348.28
314.902	378.12
314.979	362.05
315.055	345.98
315.132	368.94
315.209	368.94
315.286	300.06
315.362	417.16
315.439	348.28
315.516	364.35
315.592	327.61
315.669	348.28
315.746	362.05
315.822	405.68
315.899	343.68
315.975	403.38
316.052	428.64
316.128	352.87
316.205	414.86
316.282	352.87
316.358	309.24
316.435	394.2
316.511	389.6
316.588	378.12
316.664	389.6
316.741	398.79
316.817	396.49
316.893	407.97
316.97	368.94
317.046	325.32
317.123	403.38
317.199	359.76
317.275	394.2
317.352	350.57
317.428	320.72
317.504	391.9
317.581	447
317.657	364.35
317.733	318.43
317.81	387.31
317.886	375.83
317.962	366.64
318.038	403.38
318.115	357.46
318.191	396.49
318.267	373.53
318.343	373.53
318.419	405.68
318.496	378.12
318.572	368.94
318.648	343.68
318.724	389.6
318.8	419.45
318.876	387.31
318.952	309.24
319.028	375.83
319.105	339.09
319.181	371.24
319.257	401.08
319.333	352.87
319.409	451.6
319.485	382.72
319.561	407.97
319.637	362.05
319.713	357.46
319.789	424.04
319.865	375.83
319.94	352.87
320.016	389.6
320.092	387.31
320.168	391.9
320.244	355.16
320.32	380.42
320.396	325.32
320.472	419.45
320.547	389.6
320.623	394.2
320.699	371.24
320.775	385.01
320.851	339.09
320.926	352.87
321.002	327.61
321.078	417.16
321.154	414.86
321.229	359.76
321.305	343.68
321.381	389.6
321.456	417.16
321.532	401.08
321.608	355.16
321.683	398.79
321.759	375.83
321.835	394.2
321.91	348.28
321.986	398.79
322.061	385.01
322.137	368.94
322.212	378.12
322.288	364.35
322.364	339.09
322.439	364.35
322.515	378.12
322.59	387.31
322.666	389.6
322.741	345.98
322.816	407.97
322.892	391.9
322.967	368.94
323.043	444.71
323.118	362.05
323.193	357.46
323.269	394.2
323.344	387.31
323.42	435.52
323.495	380.42
323.57	373.53
323.646	327.61
323.721	387.31
323.796	394.2
323.871	389.6
323.947	398.79
324.022	283.99
324.097	401.08
324.172	437.82
324.248	366.64
324.323	375.83
324.398	437.82
324.473	417.16
324.548	394.2
324.623	355.16
324.699	323.02
324.774	394.2
324.849	385.01
324.924	345.98
324.999	435.52
325.074	355.16
325.149	355.16
325.224	364.35
325.299	421.75
325.374	407.97
325.449	407.97
325.524	421.75
325.599	334.5
325.674	378.12
325.749	421.75
325.824	394.2
325.899	414.86
325.974	417.16
326.049	359.76
326.124	391.9
326.199	368.94
326.273	368.94
326.348	334.5
326.423	368.94
326.498	352.87
326.573	373.53
326.648	382.72
326.722	417.16
326.797	414.86
326.872	394.2
326.947	343.68
327.021	375.83
327.096	403.38
327.171	387.31
327.245	396.49
327.32	352.87
327.395	359.76
327.47	382.72
327.544	378.12
327.619	447
327.693	357.46
327.768	391.9
327.843	352.87
327.917	396.49
327.992	476.85
328.066	451.6
328.141	380.42
328.215	394.2
328.29	428.64
328.364	359.76
328.439	410.27
328.513	389.6
328.588	332.2
328.662	320.72
328.737	341.39
328.811	426.34
328.886	375.83
328.96	410.27
329.035	359.76
329.109	428.64
329.183	352.87
329.258	382.72
329.332	371.24
329.406	336.8
329.481	366.64
329.555	357.46
329.629	417.16
329.704	380.42
329.778	407.97
329.852	424.04
329.926	327.61
330.001	325.32
330.075	389.6
330.149	430.93
330.223	359.76
330.297	398.79
330.372	407.97
330.446	435.52
330.52	405.68
330.594	401.08
330.668	362.05
330.742	389.6
330.816	357.46
330.89	382.72
330.964	339.09
331.038	394.2
331.113	389.6
331.187	345.98
331.261	348.28
331.335	456.19
331.409	382.72
331.483	334.5
331.557	421.75
331.63	424.04
331.704	426.34
331.778	407.97
331.852	407.97
331.926	405.68
332	382.72
332.074	371.24
332.148	371.24
332.222	421.75
332.295	396.49
332.369	352.87
332.443	343.68
332.517	440.12
332.591	391.9
332.665	414.86
332.738	348.28
332.812	325.32
332.886	405.68
332.959	366.64
333.033	323.02
333.107	364.35
333.181	380.42
333.254	437.82
333.328	368.94
333.402	391.9
333.475	435.52
333.549	398.79
333.622	421.75
333.696	405.68
333.77	389.6
333.843	352.87
333.917	343.68
333.99	378.12
334.064	410.27
334.137	421.75
334.211	320.72
334.284	389.6
334.358	405.68
334.431	375.83
334.505	405.68
334.578	396.49
334.652	407.97
334.725	391.9
334.799	419.45
334.872	410.27
334.945	391.9
335.019	412.56
335.092	412.56
335.165	362.05
335.239	352.87
335.312	407.97
335.385	368.94
335.459	391.9
335.532	334.5
335.605	417.16
335.678	394.2
335.752	318.43
335.825	421.75
335.898	412.56
335.971	421.75
336.045	350.57
336.118	352.87
336.191	433.23
336.264	437.82
336.337	355.16
336.41	419.45
336.483	375.83
336.557	350.57
336.63	398.79
336.703	389.6
336.776	375.83
336.849	364.35
336.922	428.64
336.995	362.05
337.068	394.2
337.141	414.86
337.214	398.79
337.287	371.24
337.36	421.75
337.433	401.08
337.506	368.94
337.579	407.97
337.652	394.2
337.725	336.8
337.797	339.09
337.87	410.27
337.943	366.64
338.016	364.35
338.089	417.16
338.162	364.35
338.235	375.83
338.307	355.16
338.38	430.93
338.453	412.56
338.526	421.75
338.598	419.45
338.671	398.79
338.744	401.08
338.817	405.68
338.889	373.53
338.962	403.38
339.035	421.75
339.107	389.6
339.18	373.53
339.253	417.16
339.325	410.27
339.398	410.27
339.47	352.87
339.543	352.87
339.616	453.89
339.688	394.2
339.761	417.16
339.833	407.97
339.906	357.46
339.978	362.05
340.051	414.86
340.123	343.68
340.196	444.71
340.268	391.9
340.341	380.42
340.413	428.64
340.485	357.46
340.558	435.52
340.63	385.01
340.703	357.46
340.775	362.05
340.847	364.35
340.92	412.56
340.992	359.76
341.064	405.68
341.137	412.56
341.209	375.83
341.281	355.16
341.354	341.39
341.426	405.68
341.498	414.86
341.57	341.39
341.643	362.05
341.715	364.35
341.787	378.12
341.859	336.8
341.931	368.94
342.003	421.75
342.076	389.6
342.148	387.31
342.22	362.05
342.292	387.31
342.364	350.57
342.436	417.16
342.508	295.47
342.58	407.97
342.652	428.64
342.724	414.86
342.796	449.3
342.868	447
342.94	412.56
343.012	385.01
343.084	373.53
343.156	378.12
343.228	398.79
343.3	318.43
343.372	387.31
343.444	375.83
343.516	345.98
343.588	467.67
343.66	412.56
343.731	451.6
343.803	447
343.875	463.08
343.947	359.76
344.019	350.57
344.09	396.49
344.162	444.71
344.234	394.2
344.306	396.49
344.377	345.98
344.449	414.86
344.521	394.2
344.593	368.94
344.664	451.6
344.736	366.64
344.808	419.45
344.879	341.39
344.951	378.12
345.023	373.53
345.094	442.41
345.166	440.12
345.237	405.68
345.309	419.45
345.38	453.89
345.452	373.53
345.524	387.31
345.595	382.72
345.667	362.05
345.738	380.42
345.81	458.48
345.881	378.12
345.953	366.64
346.024	357.46
346.095	357.46
346.167	447
346.238	332.2
346.31	359.76
346.381	364.35
346.452	460.78
346.524	412.56
346.595	332.2
346.666	378.12
346.738	357.46
346.809	364.35
346.88	465.37
346.952	401.08
347.023	391.9
347.094	382.72
347.165	394.2
347.237	375.83
347.308	362.05
347.379	398.79
347.45	426.34
347.521	401.08
347.593	341.39
347.664	366.64
347.735	371.24
347.806	366.64
347.877	394.2
347.948	304.65
348.019	424.04
348.09	366.64
348.161	456.19
348.233	396.49
348.304	332.2
348.375	447
348.446	437.82
348.517	435.52
348.588	368.94
348.659	405.68
348.73	352.87
348.801	435.52
348.871	430.93
348.942	391.9
349.013	355.16
349.084	440.12
349.155	407.97
349.226	391.9
349.297	385.01
349.368	440.12
349.439	442.41
349.509	509
349.58	375.83
349.651	414.86
349.722	511.29
349.793	378.12
349.863	394.2
349.934	424.04
350.005	391.9
350.076	417.16
350.146	456.19
350.217	391.9
350.288	414.86
350.358	426.34
350.429	375.83
350.5	430.93
350.57	385.01
350.641	387.31
350.711	375.83
350.782	460.78
350.853	405.68
350.923	419.45
350.994	401.08
351.064	373.53
351.135	368.94
351.205	378.12
351.276	375.83
351.346	412.56
351.417	421.75
351.487	419.45
351.558	437.82
351.628	410.27
351.699	373.53
351.769	451.6
351.84	389.6
351.91	430.93
351.98	380.42
352.051	403.38
352.121	364.35
352.191	440.12
352.262	387.31
352.332	476.85
352.402	378.12
352.473	398.79
352.543	382.72
352.613	474.56
352.683	382.72
352.754	382.72
352.824	398.79
352.894	357.46
352.964	430.93
353.035	398.79
353.105	398.79
353.175	435.52
353.245	414.86
353.315	401.08
353.385	412.56
353.455	417.16
353.526	463.08
353.596	428.64
353.666	426.34
353.736	419.45
353.806	403.38
353.876	417.16
353.946	366.64
354.016	398.79
354.086	453.89
354.156	382.72
354.226	495.22
354.296	396.49
354.366	394.2
354.436	398.79
354.506	371.24
354.576	460.78
354.645	437.82
354.715	401.08
354.785	426.34
354.855	430.93
354.925	410.27
354.995	398.79
355.065	394.2
355.134	481.44
355.204	414.86
355.274	430.93
355.344	463.08
355.414	442.41
355.483	362.05
355.553	401.08
355.623	451.6
355.693	362.05
355.762	502.11
355.832	417.16
355.902	518.18
355.971	419.45
356.041	435.52
356.111	440.12
356.18	440.12
356.25	385.01
356.319	389.6
356.389	444.71
356.459	424.04
356.528	387.31
356.598	368.94
356.667	412.56
356.737	444.71
356.806	368.94
356.876	414.86
356.945	405.68
357.015	437.82
357.084	495.22
357.154	396.49
357.223	442.41
357.292	396.49
357.362	380.42
357.431	396.49
357.501	433.23
357.57	405.68
357.639	355.16
357.709	389.6
357.778	437.82
357.847	373.53
357.917	447
357.986	375.83
358.055	499.81
358.124	426.34
358.194	403.38
358.263	426.34
358.332	442.41
358.401	421.75
358.471	407.97
358.54	364.35
358.609	458.48
358.678	469.96
358.747	401.08
358.816	430.93
358.886	389.6
358.955	414.86
359.024	396.49
359.093	426.34
359.162	483.74
359.231	435.52
359.3	437.82
359.369	405.68
359.438	348.28
359.507	362.05
359.576	394.2
359.645	366.64
359.714	405.68
359.783	424.04
359.852	444.71
359.921	378.12
359.99	460.78
360.059	428.64
360.128	488.33
360.197	371.24
360.266	433.23
360.334	396.49
360.403	417.16
360.472	456.19
360.541	440.12
360.61	506.7
360.679	447
360.747	389.6
360.816	366.64
360.885	437.82
360.954	410.27
361.022	366.64
361.091	440.12
361.16	387.31
361.228	490.63
361.297	375.83
361.366	437.82
361.434	451.6
361.503	414.86
361.572	486.04
361.64	387.31
361.709	389.6
361.778	447
361.846	469.96
361.915	414.86
361.983	437.82
362.052	430.93
362.12	426.34
362.189	506.7
362.257	419.45
362.326	467.67
362.394	451.6
362.463	440.12
362.531	387.31
362.6	398.79
362.668	474.56
362.737	483.74
362.805	451.6
362.873	465.37
362.942	472.26
363.01	486.04
363.079	481.44
363.147	451.6
363.215	417.16
363.284	509
363.352	479.15
363.42	463.08
363.488	497.52
363.557	504.4
363.625	564.1
363.693	529.66
363.761	499.81
363.83	465.37
363.898	506.7
363.966	453.89
364.034	550.32
364.102	545.73
364.171	499.81
364.239	529.66
364.307	582.47
364.375	570.99
364.443	642.17
364.511	587.06
364.579	541.14
364.647	518.18
364.715	548.03
364.783	580.17
364.851	699.57
364.919	626.09
364.987	646.76
365.055	605.43
365.123	662.83
365.191	649.05
365.259	649.05
365.327	715.64
365.395	676.61
365.463	708.75
365.531	683.49
365.599	701.86
365.667	736.3
365.735	720.23
365.802	690.38
365.87	793.7
365.938	756.97
366.006	805.18
366.074	871.77
366.142	814.37
366.209	821.25
366.277	853.4
366.345	876.36
366.413	887.84
366.48	903.91
366.548	945.24
366.616	947.53
366.683	945.24
366.751	995.75
366.819	1018.71
366.886	1002.64
366.954	1043.97
367.022	1099.07
367.089	1119.74
367.157	1177.14
367.224	1122.03
367.292	1142.7
367.36	1216.17
367.427	1140.4
367.495	1227.65
367.562	1328.67
367.63	1340.15
367.697	1358.52
367.765	1333.26
367.832	1422.81
367.9	1468.73
367.967	1484.8
368.034	1503.17
368.102	1512.35
368.169	1539.9
368.237	1567.46
368.304	1689.15
368.371	1679.96
368.439	1808.54
368.506	1849.87
368.573	1845.27
368.641	1852.16
368.708	2008.29
368.775	1962.37
368.843	2097.84
368.91	2022.07
368.977	2175.9
369.044	2157.53
369.112	2313.66
369.179	2263.15
369.246	2366.47
369.313	2426.16
369.38	2444.53
369.448	2430.76
369.515	2511.12
369.582	2465.2
369.649	2591.48
369.716	2775.16
369.783	2814.19
369.85	2777.45
369.917	2850.93
369.984	2862.41
370.052	3069.05
370.119	3025.42
370.186	3222.88
370.253	3291.76
370.32	3287.17
370.387	3284.87
370.454	3420.34
370.521	3496.11
370.587	3636.16
370.654	3652.23
370.721	3769.33
370.788	3829.03
370.855	3851.99
370.922	4051.74
370.989	4081.59
371.056	4127.51
371.123	4184.91
371.189	4494.87
371.256	4244.6
371.323	4559.16
371.39	4632.63
371.457	4683.14
371.523	4632.63
371.59	4869.12
371.657	4972.44
371.724	5101.02
371.79	5195.15
371.857	5339.8
371.924	5475.27
371.991	5477.56
372.057	5578.59
372.124	5776.04
372.191	5803.59
372.257	5989.57
372.324	6134.22
372.39	6184.73
372.457	6260.5
372.524	6549.8
372.59	6664.6
372.657	6705.93
372.723	6800.06
372.79	6960.78
372.856	7211.05
372.923	7116.91
372.989	7376.36
373.056	7479.68
373.122	7555.45
373.189	7844.75
373.255	8078.94
373.322	8010.06
373.388	8131.75
373.454	8503.7
373.521	8515.18
373.587	8623.09
373.654	9024.9
373.72	9114.44
373.786	9231.54
373.853	9327.97
373.919	9722.88
373.985	9798.65
374.052	9844.57
374.118	9989.22
374.184	10124.68
374.25	10583.89
374.317	10599.96
374.383	10889.26
374.449	11102.78
374.515	11217.59
374.581	11327.79
374.648	11610.2
374.714	11653.83
374.78	12037.26
374.846	12099.25
374.912	12356.41
374.978	12758.21
375.044	12707.7
375.11	13238.07
375.177	13173.79
375.243	13582.47
375.309	13841.92
375.375	14004.94
375.441	14491.69
375.507	14523.84
375.573	14842.98
375.639	14902.68
375.705	15169.02
375.771	15306.78
375.837	15795.83
375.903	15949.66
375.968	16020.84
376.034	16052.98
376.1	16686.68
376.166	16868.06
376.232	17109.15
376.298	17334.15
376.364	18006.89
376.43	17740.55
376.495	18064.29
376.561	18452.31
376.627	18776.05
376.693	19042.39
376.759	19152.59
376.824	19650.83
376.89	20087.07
376.956	20263.86
377.022	20626.63
377.087	20851.64
377.153	21196.04
377.219	21597.84
377.284	22082.3
377.35	22429
377.416	22463.44
377.481	22860.65
377.547	22752.74
377.613	23115.51
377.678	23641.29
377.744	23829.57
377.809	24568.88
377.875	24929.35
377.94	25041.86
378.006	25666.37
378.071	25586.01
378.137	26345.99
378.202	26692.69
378.268	26880.96
378.333	27500.88
378.399	27572.06
378.464	28208.06
378.53	28694.81
378.595	29349.17
378.661	29135.64
378.726	29675.21
378.791	30628.05
378.857	30724.48
378.922	31073.48
378.987	31532.68
379.053	32301.84
379.118	32494.71
379.183	33254.68
379.249	33658.78
379.314	33746.03
379.379	34276.41
379.444	34639.18
379.51	35401.45
379.575	35791.78
379.64	36239.5
379.705	36508.13
379.771	36919.12
379.836	36868.6
379.901	37743.38
379.966	38133.7
380.031	39176.09
380.096	39401.1
380.161	40064.65
380.227	40762.64
380.292	41265.46
380.357	41598.38
380.422	42059.88
380.487	42636.18
380.552	42691.28
380.617	43933.42
380.682	44211.24
380.747	44574.01
380.812	45092.91
380.877	45299.55
380.942	46002.13
381.007	45976.87
381.072	46465.92
381.137	47101.92
381.202	47343
381.266	47900.93
381.331	48240.74
381.396	48941.02
381.461	48775.71
381.526	48975.46
381.591	49478.29
381.656	49841.06
381.72	50513.79
381.785	50256.64
381.85	50860.49
381.915	50956.92
381.979	50706.65
382.044	50881.15
382.109	51464.34
382.174	51303.62
382.238	51783.48
382.303	52162.32
382.368	52199.06
382.432	51641.13
382.497	52010.79
382.562	52013.08
382.626	52449.32
382.691	52605.45
382.756	52010.79
382.82	52084.26
382.885	52013.08
382.949	51918.95
383.014	52098.03
383.078	51790.37
383.143	51510.26
383.208	51544.7
383.272	51074.01
383.337	51076.31
383.401	50743.39
383.465	50520.68
383.53	50153.31
383.594	49898.46
383.659	50157.91
383.723	49531.1
383.788	49186.69
383.852	48883.62
383.916	48323.4
383.981	48197.11
384.045	47198.35
384.109	47021.56
384.174	46906.76
384.238	46397.04
384.302	45513.08
384.367	45581.96
384.431	44723.25
384.495	44656.67
384.56	43648.72
384.624	43090.79
384.688	42845.12
384.752	41676.45
384.816	41019.79
384.881	40151.9
384.945	39635.3
385.009	39254.16
385.073	38670.97
385.137	38103.86
385.201	37302.55
385.265	37268.11
385.33	36420.88
385.394	36023.67
385.458	35566.77
385.522	34682.8
385.586	34400.39
385.65	33649.6
385.714	33259.28
385.778	32598.03
385.842	32092.9
385.906	31803.61
385.97	31066.59
386.034	30320.38
386.098	29870.37
386.162	29604.03
386.226	28908.34
386.29	28570.83
386.354	27684.57
386.417	27574.36
386.481	27050.87
386.545	26573.3
386.609	26134.76
386.673	25930.41
386.737	25535.5
386.8	24768.63
386.864	24525.26
386.928	24043.09
386.992	23758.39
387.056	23487.46
387.119	23237.19
387.183	22968.56
387.247	22268.28
387.31	21928.47
387.374	21728.72
387.438	21078.95
387.502	21120.27
387.565	20442.95
387.629	20534.79
387.692	20137.58
387.756	20178.91
387.82	19772.52
387.883	19375.31
387.947	18948.25
388.01	19203.11
388.074	18433.94
388.138	18140.05
388.201	18068.88
388.265	17947.19
388.328	17777.28
388.392	17295.12
388.455	17102.26
388.519	16962.2
388.582	17102.26
388.645	16714.23
388.709	16326.21
388.772	16441.01
388.836	16142.53
388.899	16018.54
388.962	15614.44
389.026	15354.99
389.089	15348.11
389.153	15235.6
389.216	14916.46
389.279	15201.16
389.343	14769.51
389.406	14595.02
389.469	14360.82
389.532	14429.7
389.596	14452.66
389.659	14227.65
389.722	14076.12
389.785	13724.83
389.848	13768.45
389.912	13752.38
389.975	13281.7
390.038	13251.85
390.101	13256.44
390.164	13015.36
390.227	12742.14
390.291	12918.93
390.354	12886.78
390.417	12778.87
390.48	12629.63
390.543	12526.31
390.606	12416.1
390.669	12216.35
390.732	12526.31
390.795	12280.64
390.858	12092.36
390.921	12096.96
390.984	11927.05
391.047	11780.11
391.11	11605.61
391.173	11819.14
391.236	11646.94
391.299	11727.3
391.362	11382.9
391.424	11378.31
391.487	11187.74
391.55	11242.84
391.613	11045.38
391.676	11047.68
391.739	11031.61
391.802	10958.14
391.864	10824.97
391.927	10818.08
391.99	10494.34
392.053	10700.98
392.115	10508.12
392.178	10285.41
392.241	10420.87
392.304	10450.72
392.366	10319.85
392.429	10085.65
392.492	9879.01
392.554	9968.56
392.617	9888.2
392.68	9656.3
392.742	9557.57
392.805	9559.87
392.867	9633.34
392.93	9582.83
392.992	9371.59
393.055	9210.87
393.118	9185.62
393.18	8960.61
393.243	8995.05
393.305	8733.3
393.368	8804.48
393.43	8574.88
393.493	8659.83
393.555	8361.35
393.618	8409.57
393.68	8209.81
393.742	8186.85
393.805	8023.84
393.867	8150.12
393.93	7759.79
393.992	7876.89
394.054	7741.43
394.117	7649.59
394.179	7314.37
394.241	7325.85
394.304	7263.86
394.366	7234.01
394.428	7045.74
394.49	6956.19
394.553	6924.05
394.615	6885.02
394.677	6575.05
394.739	6751.85
394.802	6547.5
394.864	6586.53
394.926	6198.51
394.988	6283.46
395.05	6311.01
395.112	5998.76
395.174	5952.84
395.237	5883.95
395.299	5746.19
395.361	5805.89
395.423	5691.09
395.485	5603.84
395.547	5619.91
395.609	5211.22
395.671	5273.22
395.733	5261.74
395.795	5213.52
395.857	5094.13
395.919	5110.2
395.981	4938
396.043	4919.63
396.105	4885.19
396.167	4641.81
396.229	4664.77
396.291	4572.93
396.352	4517.83
396.414	4455.84
396.476	4435.17
396.538	4235.42
396.6	4405.32
396.662	4240.01
396.724	4217.05
396.785	4198.68
396.847	4047.15
396.909	3920.87
396.971	3975.97
397.032	3904.79
397.094	3858.87
397.156	3847.39
397.218	3707.34
397.279	3679.79
397.341	3610.91
397.403	3509.88
397.464	3505.29
397.526	3406.56
397.588	3512.18
397.649	3399.67
397.711	3275.69
397.772	3351.46
397.834	3261.91
397.896	3140.22
397.957	3055.27
398.019	3190.74
398.08	3142.52
398.142	3082.82
398.203	2922.1
398.265	3011.65
398.326	2938.17
398.388	2954.25
398.449	2873.89
398.511	2821.08
398.572	2825.67
398.633	2899.14
398.695	2736.13
398.756	2761.38
398.818	2674.13
398.879	2690.21
398.94	2584.59
399.002	2669.54
399.063	2630.51
399.124	2623.62
399.186	2563.93
399.247	2492.75
399.308	2529.48
399.369	2456.01
399.431	2396.32
399.492	2481.27
399.553	2419.28
399.614	2442.24
399.676	2354.99
399.737	2394.02
399.798	2389.43
399.859	2377.95
399.92	2279.22
399.981	2281.52
400.042	2313.66
400.104	2224.12
400.165	2136.87
400.226	2224.12
400.287	2065.69
400.348	2201.16
400.409	2164.42
400.47	2166.72
400.531	2090.95
400.592	2104.72
400.653	2074.88
400.714	2005.99
400.775	2017.47
400.836	1996.81
400.897	1921.04
400.958	1939.41
401.019	1996.81
401.08	2028.95
401.141	1992.22
401.201	1824.61
401.262	1898.08
401.323	1886.6
401.384	1810.83
401.445	1856.75
401.506	1790.17
401.567	1891.19
401.627	1854.46
401.688	1829.2
401.749	1769.51
401.81	1838.39
401.87	1783.28
401.931	1787.87
401.992	1691.44
402.053	1799.35
402.113	1806.24
402.174	1751.14
402.235	1721.29
402.295	1677.67
402.356	1627.15
402.417	1771.8
402.477	1716.7
402.538	1624.86
402.598	1666.19
402.659	1696.03
402.719	1650.11
402.78	1696.03
402.841	1668.48
402.901	1661.59
402.962	1615.67
403.022	1505.46
403.083	1611.08
403.143	1487.1
403.204	1535.31
403.264	1553.68
403.324	1562.86
403.385	1505.46
403.445	1572.05
403.506	1604.19
403.566	1484.8
403.627	1489.39
403.687	1585.83
403.747	1466.43
403.808	1445.77
403.868	1413.62
403.928	1429.7
403.989	1500.87
404.049	1427.4
404.109	1404.44
404.169	1415.92
404.23	1436.58
404.29	1409.03
404.35	1289.64
404.41	1402.14
404.47	1415.92
404.531	1376.89
404.591	1500.87
404.651	1395.26
404.711	1358.52
404.771	1333.26
404.831	1337.86
404.892	1353.93
404.952	1241.42
405.012	1223.06
405.072	1305.71
405.132	1289.64
405.192	1234.54
405.252	1296.53
405.312	1223.06
405.372	1190.91
405.432	1197.8
405.492	1252.9
405.552	1195.5
405.612	1181.73
405.672	1133.51
405.732	1202.39
405.792	1142.7
405.852	1218.46
405.912	1193.21
405.971	1229.94
406.031	1112.85
406.091	1133.51
406.151	1142.7
406.211	1089.89
406.271	1030.19
406.33	1071.52
406.39	1023.3
406.45	1087.59
406.51	1105.96
406.57	993.45
406.629	1004.93
406.689	1046.26
406.749	1050.85
406.808	1014.12
406.868	1034.78
406.928	981.97
406.988	1048.56
407.047	945.24
407.107	1027.89
407.166	945.24
407.226	984.27
407.286	897.02
407.345	924.57
407.405	933.76
407.464	952.13
407.524	1034.78
407.584	949.83
407.643	945.24
407.703	825.85
407.762	913.09
407.822	908.5
407.881	857.99
407.941	901.61
408	897.02
408.059	857.99
408.119	938.35
408.178	931.46
408.238	722.53
408.297	857.99
408.356	867.17
408.416	846.51
408.475	862.58
408.535	825.85
408.594	802.89
408.653	812.07
408.712	777.63
408.772	800.59
408.831	736.3
408.89	871.77
408.95	812.07
409.009	747.78
409.068	791.41
409.127	754.67
409.186	805.18
409.246	766.15
409.305	747.78
409.364	727.12
409.423	754.67
409.482	752.37
409.541	871.77
409.6	738.6
409.66	717.93
409.719	750.08
409.778	722.53
409.837	759.26
409.896	674.31
409.955	740.89
410.014	747.78
410.073	674.31
410.132	646.76
410.191	619.21
410.25	674.31
410.309	665.13
410.368	734.01
410.427	701.86
410.486	752.37
410.545	701.86
410.603	619.21
410.662	639.87
410.721	610.02
410.78	658.24
410.839	623.8
410.898	655.94
410.957	688.09
411.015	628.39
411.074	678.9
411.133	676.61
411.192	632.98
411.25	635.28
411.309	605.43
411.368	598.54
411.427	587.06
411.485	589.36
411.544	598.54
411.603	662.83
411.661	566.4
411.72	644.46
411.779	612.32
411.837	621.5
411.896	570.99
411.955	610.02
412.013	607.73
412.072	651.35
412.13	600.84
412.189	598.54
412.247	554.92
412.306	603.13
412.364	713.34
412.423	591.65
412.481	584.76
412.54	614.61
412.598	564.1
412.657	614.61
412.715	577.88
412.774	541.14
412.832	534.25
412.891	550.32
412.949	584.76
413.007	534.25
413.066	593.95
413.124	598.54
413.182	580.17
413.241	568.69
413.299	603.13
413.357	541.14
413.416	570.99
413.474	589.36
413.532	612.32
413.59	550.32
413.649	548.03
413.707	607.73
413.765	561.8
413.823	591.65
413.881	570.99
413.94	582.47
413.998	589.36
414.056	538.84
414.114	541.14
414.172	589.36
414.23	591.65
414.288	552.62
414.347	545.73
414.405	538.84
414.463	616.91
414.521	518.18
414.579	575.58
414.637	541.14
414.695	541.14
414.753	529.66
414.811	536.55
414.869	531.96
414.927	529.66
414.985	548.03
415.043	568.69
415.101	568.69
415.158	570.99
415.216	545.73
415.274	499.81
415.332	548.03
415.39	502.11
415.448	515.88
415.506	458.48
415.563	495.22
415.621	573.28
415.679	541.14
415.737	488.33
415.795	561.8
415.852	479.15
415.91	541.14
415.968	529.66
416.026	543.44
416.083	465.37
416.141	405.68
416.199	534.25
416.256	522.77
416.314	479.15
416.372	518.18
416.429	465.37
416.487	474.56
416.544	502.11
416.602	465.37
416.66	495.22
416.717	453.89
416.775	509
416.832	545.73
416.89	472.26
416.947	543.44
417.005	458.48
417.062	463.08
417.12	531.96
417.177	458.48
417.235	465.37
417.292	479.15
417.35	499.81
417.407	502.11
417.464	460.78
417.522	463.08
417.579	497.52
417.637	499.81
417.694	417.16
417.751	492.92
417.809	504.4
417.866	424.04
417.923	472.26
417.981	440.12
418.038	486.04
418.095	474.56
418.152	479.15
418.21	463.08
418.267	456.19
418.324	479.15
418.381	430.93
418.438	469.96
418.496	440.12
418.553	458.48
418.61	483.74
418.667	479.15
418.724	552.62
418.781	534.25
418.838	437.82
418.895	463.08
418.952	433.23
419.01	419.45
419.067	456.19
419.124	398.79
419.181	421.75
419.238	442.41
419.295	440.12
419.352	495.22
419.409	476.85
419.466	474.56
419.523	378.12
419.579	405.68
419.636	465.37
419.693	410.27
419.75	394.2
419.807	506.7
419.864	447
419.921	394.2
419.978	467.67
420.034	492.92
420.091	447
420.148	417.16
420.205	387.31
420.262	469.96
420.318	467.67
420.375	426.34
420.432	435.52
420.489	355.16
420.545	437.82
420.602	424.04
420.659	430.93
420.715	371.24
420.772	440.12
420.829	385.01
420.885	433.23
420.942	447
420.999	394.2
421.055	401.08
421.112	433.23
421.168	424.04
421.225	366.64
421.282	451.6
421.338	435.52
421.395	428.64
421.451	391.9
421.508	410.27
421.564	373.53
421.621	435.52
421.677	435.52
421.734	435.52
421.79	394.2
421.846	463.08
421.903	417.16
421.959	385.01
422.016	403.38
422.072	451.6
422.128	389.6
422.185	371.24
422.241	359.76
422.297	391.9
422.354	410.27
422.41	458.48
422.466	380.42
422.523	405.68
422.579	435.52
422.635	417.16
422.691	391.9
422.748	403.38
422.804	359.76
422.86	403.38
422.916	385.01
422.972	449.3
423.029	382.72
423.085	359.76
423.141	359.76
423.197	451.6
423.253	355.16
423.309	407.97
423.365	428.64
423.421	382.72
423.477	350.57
423.533	375.83
423.589	348.28
423.645	394.2
423.701	421.75
423.757	437.82
423.813	419.45
423.869	368.94
423.925	373.53
423.981	419.45
424.037	426.34
424.093	407.97
424.149	359.76
424.205	421.75
424.261	325.32
424.317	412.56
424.373	430.93
424.428	391.9
424.484	309.24
424.54	435.52
424.596	447
424.652	405.68
424.708	444.71
424.763	362.05
424.819	407.97
424.875	440.12
424.931	433.23
424.986	398.79
425.042	380.42
425.098	366.64
425.153	405.68
425.209	442.41
425.265	417.16
425.32	421.75
425.376	419.45
425.432	419.45
425.487	424.04
425.543	458.48
425.598	350.57
425.654	357.46
425.709	325.32
425.765	437.82
425.82	387.31
425.876	391.9
425.932	313.84
425.987	348.28
426.042	380.42
426.098	401.08
426.153	380.42
426.209	387.31
426.264	364.35
426.32	394.2
426.375	398.79
426.43	362.05
426.486	410.27
426.541	458.48
426.597	401.08
426.652	421.75
426.707	430.93
426.763	362.05
426.818	355.16
426.873	357.46
426.928	364.35
426.984	437.82
427.039	357.46
427.094	430.93
427.149	401.08
427.205	385.01
427.26	366.64
427.315	428.64
427.37	410.27
427.425	371.24
427.48	405.68
427.536	428.64
427.591	398.79
427.646	394.2
427.701	362.05
427.756	382.72
427.811	357.46
427.866	371.24
427.921	359.76
427.976	440.12
428.031	407.97
428.086	396.49
428.141	449.3
428.196	359.76
428.251	396.49
428.306	380.42
428.361	414.86
428.416	341.39
428.471	387.31
428.526	424.04
428.581	407.97
428.636	364.35
428.691	355.16
428.745	442.41
428.8	368.94
428.855	302.36
428.91	320.72
428.965	467.67
429.02	405.68
429.074	341.39
429.129	364.35
429.184	359.76
429.239	405.68
429.293	442.41
429.348	323.02
429.403	407.97
429.457	359.76
429.512	373.53
429.567	368.94
429.621	405.68
429.676	362.05
429.731	378.12
429.785	371.24
429.84	336.8
429.895	401.08
429.949	407.97
430.004	391.9
430.058	389.6
430.113	421.75
430.167	394.2
430.222	385.01
430.276	348.28
430.331	398.79
430.385	387.31
430.44	368.94
430.494	410.27
430.549	378.12
430.603	343.68
430.657	396.49
430.712	410.27
430.766	398.79
430.821	396.49
430.875	421.75
430.929	387.31
430.984	407.97
431.038	357.46
431.092	364.35
431.147	341.39
431.201	368.94
431.255	366.64
431.309	382.72
431.364	352.87
431.418	410.27
431.472	414.86
431.526	364.35
431.581	421.75
431.635	440.12
431.689	403.38
431.743	378.12
431.797	380.42
431.851	373.53
431.906	355.16
431.96	378.12
432.014	341.39
432.068	352.87
432.122	426.34
432.176	407.97
432.23	378.12
432.284	373.53
432.338	352.87
432.392	394.2
432.446	463.08
432.5	336.8
432.554	352.87
432.608	398.79
432.662	355.16
432.716	421.75
432.77	371.24
432.824	348.28
432.878	352.87
432.931	366.64
432.985	355.16
433.039	398.79
433.093	382.72
433.147	334.5
433.201	336.8
433.254	394.2
433.308	343.68
433.362	398.79
433.416	417.16
433.47	385.01
433.523	378.12
433.577	320.72
433.631	320.72
433.684	412.56
433.738	382.72
433.792	387.31
433.846	396.49
433.899	410.27
433.953	359.76
434.006	389.6
434.06	382.72
434.114	391.9
434.167	391.9
434.221	391.9
