Data from FLMS155811_14-47-52-698.txt Node
Date: Tue May 12 14:47:52 MDT 2026
User: ecestudent
Spectrometer: FLMS15581
Trigger mode: 0
Integration Time (sec): 4.000000E-2
Scans to average: 200
Electric dark correction enabled: true
Nonlinearity correction enabled: false
Boxcar width: 0
XAxis mode: Wavelengths
Number of Pixels in Spectrum: 2048
>>>>>Begin Spectral Data<<<<<
298.026	-102.25
298.106	-102.25
298.185	-102.25
298.265	-135.66
298.344	-128.7
298.424	-124
298.503	-112.19
298.583	-101.47
298.662	-93.41
298.741	-76.46
298.821	-57.81
298.9	-33.76
298.98	-18.84
299.059	-0.61
299.138	30.73
299.217	43.18
299.297	65.54
299.376	90.99
299.455	110
299.535	128.85
299.614	149.25
299.693	172.61
299.772	189.98
299.852	207.18
299.931	228.72
300.01	243.33
300.089	263.55
300.168	269.95
300.247	286.43
300.327	294
300.406	304.86
300.485	316.08
300.564	317.14
300.643	325.6
300.722	335.85
300.801	342.37
300.88	346.84
300.959	345.27
301.038	347.52
301.117	350.66
301.196	349.53
301.275	357.16
301.354	356.54
301.433	354.09
301.512	358.67
301.591	355.77
301.67	358.03
301.749	364.37
301.828	356.48
301.907	350.28
301.985	356.64
302.064	347.63
302.143	343.36
302.222	349.44
302.301	343.52
302.38	343.09
302.458	343.37
302.537	340.15
302.616	340.91
302.695	339.34
302.773	331.97
302.852	338.9
302.931	332.38
303.01	331.14
303.088	330.01
303.167	326.62
303.246	324.17
303.324	331.72
303.403	326.09
303.481	327.16
303.56	329.98
303.639	326.94
303.717	332.08
303.796	329.54
303.874	326.48
303.953	329.03
304.032	329.11
304.11	327.26
304.189	333.87
304.267	327.33
304.346	326.19
304.424	334.27
304.502	334.24
304.581	326.18
304.659	330.21
304.738	331.96
304.816	327.54
304.895	332.03
304.973	329.54
305.051	335.09
305.13	335.52
305.208	334.6
305.286	332.04
305.365	335.79
305.443	332.13
305.521	334.98
305.6	336.27
305.678	334.55
305.756	337.5
305.834	331.96
305.913	336.96
305.991	338.24
306.069	336.56
306.147	337.65
306.225	339.47
306.304	341.08
306.382	342
306.46	338.72
306.538	340.2
306.616	342.38
306.694	341.38
306.772	341.03
306.85	341.56
306.929	340.83
307.007	338.36
307.085	347
307.163	343.66
307.241	344.36
307.319	340.75
307.397	343.79
307.475	337.33
307.553	342.08
307.631	339.95
307.709	342.96
307.786	344.62
307.864	342.15
307.942	344.14
308.02	343.3
308.098	346.59
308.176	349.76
308.254	343.95
308.332	348.06
308.409	347.16
308.487	346.77
308.565	345.94
308.643	346.17
308.721	347
308.798	345.46
308.876	346.1
308.954	351.31
309.032	345.85
309.109	346.1
309.187	342.47
309.265	353.1
309.342	347.74
309.42	352.9
309.498	344.21
309.575	351.57
309.653	348.84
309.731	349.74
309.808	351.39
309.886	352
309.963	352.68
310.041	349.11
310.119	355.87
310.196	353.35
310.274	351.44
310.351	354.76
310.429	353.91
310.506	349.06
310.584	354.99
310.661	352.05
310.738	348.86
310.816	350.69
310.893	356.57
310.971	350.81
311.048	353.46
311.126	354.69
311.203	346.64
311.28	352.31
311.358	350.43
311.435	352.97
311.512	354.7
311.59	355
311.667	354.64
311.744	353.87
311.821	357.39
311.899	360.59
311.976	355.39
312.053	355.25
312.13	359.09
312.208	349.69
312.285	362.13
312.362	360.2
312.439	356.32
312.516	354.27
312.593	358.29
312.671	353.75
312.748	353.64
312.825	353.36
312.902	353.23
312.979	355.15
313.056	356.03
313.133	356.72
313.21	362.01
313.287	361.87
313.364	359.37
313.441	360.66
313.518	361.16
313.595	359.19
313.672	365.07
313.749	356.18
313.826	364.69
313.903	359.92
313.98	356.84
314.057	363.79
314.134	359.31
314.211	366.65
314.287	363.07
314.364	363.53
314.441	366.04
314.518	363.21
314.595	361.68
314.672	365.51
314.748	365.77
314.825	362.89
314.902	361.25
314.979	364.8
315.055	361.13
315.132	367.78
315.209	362.77
315.286	362.38
315.362	365.64
315.439	367.55
315.516	366.39
315.592	365.5
315.669	364.55
315.746	368.79
315.822	368.68
315.899	364.46
315.975	364.78
316.052	367.58
316.128	368.64
316.205	366.51
316.282	372.08
316.358	367.89
316.435	382.76
316.511	369.67
316.588	367.19
316.664	366.77
316.741	370.38
316.817	372.46
316.893	365.28
316.97	364.25
317.046	369.52
317.123	368.35
317.199	370.57
317.275	368.51
317.352	371.62
317.428	372.1
317.504	369.26
317.581	368.79
317.657	369.74
317.733	370.65
317.81	363.57
317.886	371.58
317.962	374.37
318.038	374.08
318.115	371.28
318.191	368.03
318.267	370.5
318.343	367.58
318.419	368.46
318.496	375.46
318.572	374.88
318.648	376.62
318.724	371.54
318.8	376.33
318.876	373.68
318.952	370.46
319.028	375.52
319.105	368.6
319.181	373.78
319.257	373.83
319.333	373.01
319.409	371.32
319.485	375.19
319.561	370.76
319.637	370.55
319.713	373.71
319.789	369.02
319.865	370.65
319.94	368.51
320.016	375.05
320.092	371.24
320.168	373.63
320.244	375.88
320.32	372.6
320.396	371.05
320.472	374.2
320.547	377.6
320.623	377.83
320.699	372.18
320.775	375.01
320.851	377.22
320.926	375.19
321.002	374.53
321.078	373.13
321.154	375.89
321.229	373.7
321.305	375.62
321.381	375.98
321.456	375.83
321.532	377.95
321.608	377.38
321.683	374.02
321.759	376.73
321.835	370.88
321.91	370.92
321.986	380.43
322.061	378.23
322.137	373.35
322.212	377.86
322.288	372.63
322.364	376.73
322.439	381.62
322.515	374.31
322.59	377.26
322.666	388.32
322.741	381.68
322.816	376.81
322.892	378.96
322.967	384.69
323.043	375.33
323.118	378.36
323.193	375.11
323.269	377.53
323.344	378.7
323.42	379.71
323.495	379.4
323.57	379.28
323.646	380.45
323.721	380.32
323.796	377.58
323.871	379.92
323.947	378.96
324.022	377.05
324.097	379.3
324.172	382.19
324.248	380.61
324.323	381.05
324.398	383.23
324.473	378.07
324.548	377.42
324.623	379.37
324.699	379.96
324.774	380.52
324.849	380.56
324.924	379.94
324.999	376.87
325.074	384.34
325.149	378.58
325.224	385.94
325.299	415.99
325.374	382.24
325.449	382.54
325.524	379.28
325.599	376.21
325.674	381.71
325.749	389.15
325.824	384.01
325.899	382.19
325.974	381.18
326.049	387.8
326.124	385.26
326.199	384.26
326.273	384.17
326.348	388.03
326.423	383.18
326.498	384.88
326.573	382
326.648	386.01
326.722	381.84
326.797	387.92
326.872	383.02
326.947	386.18
327.021	379.98
327.096	383.39
327.171	381.44
327.245	382.57
327.32	385.16
327.395	386.69
327.47	382.34
327.544	383.82
327.619	383.09
327.693	401.66
327.768	392.79
327.843	384.15
327.917	385.43
327.992	385.47
328.066	387.48
328.141	387.34
328.215	384.39
328.29	390.28
328.364	391.28
328.439	386.88
328.513	389.36
328.588	384.86
328.662	382.49
328.737	393.35
328.811	384.32
328.886	385.55
328.96	386.88
329.035	389.7
329.109	387.38
329.183	386.97
329.258	383.3
329.332	387.35
329.406	389.03
329.481	389.93
329.555	388.3
329.629	385.78
329.704	391.15
329.778	384.54
329.852	385.55
329.926	389.66
330.001	391.71
330.075	391.21
330.149	396.66
330.223	388.43
330.297	393.05
330.372	387.84
330.446	393.16
330.52	388.42
330.594	385.04
330.668	388.52
330.742	389.38
330.816	389.54
330.89	389.22
330.964	387.72
331.038	390.68
331.113	388.67
331.187	388.59
331.261	393.07
331.335	388.12
331.409	388.74
331.483	392.07
331.557	387.2
331.63	391.44
331.704	392.03
331.778	398.7
331.852	392.3
331.926	397.5
332	393.17
332.074	389.86
332.148	391.47
332.222	386.49
332.295	391.88
332.369	395.95
332.443	395.42
332.517	394.99
332.591	393.64
332.665	395.2
332.738	391.56
332.812	391.24
332.886	393.86
332.959	392.73
333.033	390.24
333.107	395.48
333.181	392.41
333.254	395.43
333.328	393.55
333.402	395.92
333.475	395.5
333.549	393.26
333.622	395.12
333.696	397.97
333.77	396.58
333.843	397.69
333.917	394.75
333.99	403.13
334.064	397.62
334.137	395.75
334.211	395.45
334.284	394.74
334.358	399.72
334.431	397.38
334.505	394.58
334.578	396.68
334.652	397.11
334.725	398.87
334.799	394.5
334.872	393.4
334.945	399.18
335.019	394.71
335.092	399.83
335.165	396.42
335.239	400.91
335.312	398.6
335.385	394.63
335.459	399.09
335.532	401.14
335.605	394.44
335.678	405.52
335.752	395.22
335.825	395.39
335.898	396.19
335.971	407.7
336.045	394.16
336.118	397.05
336.191	398.09
336.264	399.37
336.337	399.3
336.41	399.85
336.483	397.29
336.557	400.99
336.63	400.38
336.703	407.63
336.776	400.18
336.849	406.76
336.922	402.89
336.995	400.56
337.068	397.07
337.141	401.95
337.214	400.52
337.287	401.92
337.36	402.18
337.433	403.18
337.506	399.89
337.579	403.88
337.652	406.25
337.725	403.28
337.797	402.48
337.87	403.5
337.943	411.31
338.016	400.92
338.089	406.13
338.162	401.79
338.235	402.67
338.307	403.93
338.38	402.33
338.453	403.85
338.526	402.16
338.598	406.57
338.671	405.02
338.744	405.77
338.817	403.32
338.889	404.67
338.962	402.77
339.035	400.77
339.107	402.57
339.18	404.47
339.253	403.97
339.325	404.49
339.398	404.14
339.47	408.93
339.543	406.87
339.616	408.9
339.688	411.64
339.761	411.16
339.833	412.35
339.906	402.65
339.978	407.46
340.051	407.86
340.123	409.17
340.196	414.19
340.268	410.64
340.341	409.94
340.413	409.05
340.485	410.85
340.558	415.19
340.63	414.68
340.703	413.34
340.775	409.24
340.847	408.91
340.92	405.9
340.992	415.95
341.064	412.25
341.137	410.22
341.209	409.93
341.281	413.4
341.354	410.25
341.426	411.2
341.498	409.87
341.57	413.1
341.643	411.71
341.715	412.48
341.787	419.71
341.859	411.42
341.931	416.42
342.003	416.82
342.076	418.68
342.148	416.49
342.22	416.35
342.292	419.93
342.364	412.46
342.436	415.04
342.508	414.91
342.58	420.45
342.652	418.57
342.724	421.27
342.796	415.58
342.868	417.25
342.94	414.46
343.012	422.73
343.084	416.6
343.156	415.74
343.228	419.92
343.3	420.23
343.372	420.12
343.444	420.76
343.516	421.03
343.588	425.31
343.66	425.36
343.731	415.81
343.803	419.47
343.875	423.33
343.947	421.93
344.019	425.18
344.09	423.07
344.162	422.37
344.234	424.05
344.306	423.43
344.377	425.34
344.449	418.44
344.521	430.77
344.593	425.23
344.664	422.91
344.736	425.1
344.808	425.67
344.879	424.85
344.951	426.07
345.023	427.02
345.094	431.24
345.166	425.02
345.237	430.95
345.309	423.99
345.38	432.83
345.452	431.36
345.524	428.98
345.595	433.41
345.667	431.56
345.738	430.81
345.81	434.66
345.881	432.65
345.953	435.99
346.024	436.67
346.095	431.29
346.167	433.36
346.238	439.59
346.31	432.94
346.381	432.71
346.452	437.7
346.524	435.54
346.595	430.8
346.666	437.16
346.738	441.43
346.809	440.65
346.88	448.1
346.952	438.09
347.023	441.06
347.094	438.79
347.165	447.22
347.237	443.3
347.308	442.07
347.379	443.46
347.45	444.27
347.521	439.19
347.593	442.09
347.664	445.17
347.735	444.75
347.806	446.4
347.877	450.47
347.948	444.98
348.019	449.98
348.09	448.38
348.161	446.09
348.233	447.25
348.304	450.44
348.375	453.99
348.446	451.61
348.517	451.02
348.588	456.81
348.659	453.43
348.73	456.62
348.801	453.98
348.871	458.47
348.942	456.3
349.013	460.76
349.084	457.65
349.155	450.29
349.226	461.92
349.297	462.81
349.368	460.99
349.439	463.16
349.509	463.31
349.58	464.14
349.651	468.66
349.722	468.81
349.793	468
349.863	473.16
349.934	474.15
350.005	470.77
350.076	472.75
350.146	474.95
350.217	482.28
350.288	476.63
350.358	478.48
350.429	485.09
350.5	482.14
350.57	490.62
350.641	488.33
350.711	486.38
350.782	490.44
350.853	497.97
350.923	498.19
350.994	503.01
351.064	502.09
351.135	504.37
351.205	510.94
351.276	518.8
351.346	519.84
351.417	523.22
351.487	520.54
351.558	528.45
351.628	531.37
351.699	540.73
351.769	547.44
351.84	548.08
351.91	556.75
351.98	563.06
352.051	574.49
352.121	579.54
352.191	581.97
352.262	588.78
352.332	603.53
352.402	610.83
352.473	623.93
352.543	634.88
352.613	649.37
352.683	653.97
352.754	667.09
352.824	683.1
352.894	696.75
352.964	709.25
353.035	720.92
353.105	734.63
353.175	763.7
353.245	773.86
353.315	797.31
353.385	815.47
353.455	829.86
353.526	852.57
353.596	874.9
353.666	906.02
353.736	926.5
353.806	951.18
353.876	973.65
353.946	1000.46
354.016	1033.78
354.086	1068.64
354.156	1102.3
354.226	1136.56
354.296	1164.44
354.366	1202.35
354.436	1237.46
354.506	1281.52
354.576	1312.87
354.645	1358.64
354.715	1410.2
354.785	1465.62
354.855	1503.36
354.925	1525.68
354.995	1584.82
355.065	1648.89
355.134	1696.2
355.204	1744.83
355.274	1811.02
355.344	1888.89
355.414	1963.22
355.483	2000.43
355.553	2085.06
355.623	2155.21
355.693	2216.35
355.762	2271.89
355.832	2360.86
355.902	2471.32
355.971	2559.05
356.041	2621.33
356.111	2709.56
356.18	2791.58
356.25	2891.95
356.319	2999.67
356.389	3090.09
356.459	3197.48
356.528	3347.55
356.598	3460.53
356.667	3556.91
356.737	3693.84
356.806	3776.01
356.876	3882.59
356.945	4042.55
357.015	4203.18
357.084	4257.4
357.154	4421.7
357.223	4638.81
357.292	4742.55
357.362	4866.97
357.431	5043.92
357.501	5310.9
357.57	5458.84
357.639	5547.37
357.709	5734.32
357.778	5937.24
357.847	6169.73
357.917	6305.23
357.986	6485.56
358.055	6705.74
358.124	6852.13
358.194	7088.51
358.263	7346.62
358.332	7550.84
358.401	7789.91
358.471	8082.36
358.54	8314.24
358.609	8503.51
358.678	8793.8
358.747	9009.03
358.816	9278.01
358.886	9602.51
358.955	9825.8
359.024	10224.66
359.093	10474.78
359.162	10886.28
359.231	11109.69
359.3	11435.71
359.369	11699.31
359.438	12074.8
359.507	12407.42
359.576	12737.48
359.645	13028.81
359.714	13483.44
359.783	13884.8
359.852	14151.67
359.921	14336.97
359.99	14838.63
360.059	15358.88
360.128	15834.71
360.197	16110.55
360.266	16546.14
360.334	17337.09
360.403	17746.17
360.472	17889.32
360.541	18242.46
360.61	18910.52
360.679	19349.37
360.747	20000.46
360.816	20656.11
360.885	21097.91
360.954	21501.85
361.022	22248.32
361.091	22549.24
361.16	22978.74
361.228	23508.57
361.297	23925.38
361.366	24681.87
361.434	25332.87
361.503	26014.06
361.572	26973.19
361.64	27196.49
361.709	27522.5
361.778	28172.37
361.846	28670.7
361.915	29495.65
361.983	30558.85
362.052	30971.78
362.12	31538.17
362.189	31550.28
362.257	32409.22
362.326	33744.73
362.394	34548.89
362.463	34834.63
362.531	34828.77
362.6	35405.06
362.668	36761.78
362.737	37035.01
362.805	37838.59
362.873	38018.54
362.942	39436.5
363.01	40002.5
363.079	40189.96
363.147	40674.07
363.215	41559.89
363.284	42178.32
363.352	42876.84
363.42	43340.89
363.488	44380.68
363.557	45007.94
363.625	45662.43
363.693	46221.9
363.761	47043.84
363.83	47802.94
363.898	48225.04
363.966	48668.22
364.034	50007.09
364.102	49983.45
364.171	50419.23
364.239	50800.58
364.307	51669.85
364.375	51692.89
364.443	52476.1
364.511	52305.98
364.579	52724.2
364.647	53171.1
364.715	53835.62
364.783	54214.65
364.851	54173.01
364.919	54628.07
364.987	55428.39
365.055	55484.09
365.123	55642.02
365.191	55946.75
365.259	56127.15
365.327	56598.71
365.395	56775.28
365.463	56525.94
365.531	56679.61
365.599	57113.04
365.667	57446.38
365.735	57457.26
365.802	57357.88
365.87	57806.87
365.938	58352.93
366.006	58715.92
366.074	58862.28
366.142	59112.81
366.209	58684.29
366.277	58560.87
366.345	58681.53
366.413	58938.21
366.48	59131.64
366.548	59123.15
366.616	59080.47
366.683	59013.59
366.751	59418.56
366.819	59784.36
366.886	59774.37
366.954	59923.76
367.022	59491.27
367.089	59725.22
367.157	59886.58
367.224	59539.24
367.292	59598.15
367.36	59649.8
367.427	59941.65
367.495	60040.4
367.562	59568.75
367.63	59453.46
367.697	59591.86
367.765	60062.63
367.832	59712.16
367.9	59443.02
367.967	59123.58
368.034	59042.68
368.102	58957.71
368.169	59190.24
368.237	58930.35
368.304	59053.41
368.371	58794.24
368.439	59077.62
368.506	59041.01
368.573	58892.45
368.641	59074.78
368.708	58616.66
368.775	58562.65
368.843	58584.65
368.91	58589.06
368.977	58042.19
369.044	57897.78
369.112	57390.93
369.179	57222.59
369.246	56924.15
369.313	57428.4
369.38	57304.14
369.448	57064.09
369.515	57046.73
369.582	56552.58
369.649	56392.55
369.716	56398.57
369.783	56227.67
369.85	56389.66
369.917	56496.2
369.984	55524.51
370.052	55348.58
370.119	55124.55
370.186	55415.84
370.253	55155.57
370.32	55210.7
370.387	54908.44
370.454	54374.35
370.521	54094.16
370.587	53695.81
370.654	54318.51
370.721	54062.7
370.788	53651.98
370.855	52616.48
370.922	52650.05
370.989	52504.02
371.056	52605.56
371.123	52221.75
371.189	51319.63
371.256	50765.05
371.323	50458.23
371.39	49787.61
371.457	48878.78
371.523	48601.03
371.59	47488.7
371.657	47081.1
371.724	46714.81
371.79	45401.22
371.857	44539.41
371.924	43522.74
371.991	41821.07
372.057	40829.97
372.124	39658.42
372.191	38301.96
372.257	37423.17
372.324	36564.18
372.39	35090.48
372.457	33515.95
372.524	32175.1
372.59	30914.41
372.657	29304.11
372.723	27904.79
372.79	26538.54
372.856	24948.99
372.923	23683.45
372.989	22414.66
373.056	21247.93
373.122	20113.73
373.189	18797.72
373.255	17863.77
373.322	16885.3
373.388	15784.5
373.454	14779.31
373.521	13538.51
373.587	12742.23
373.654	11744.01
373.72	11074.52
373.786	10162.23
373.853	9575.77
373.919	8916.97
373.985	8300.09
374.052	7743.17
374.118	7109.85
374.184	6706.35
374.25	6249.62
374.317	5848.72
374.383	5434.16
374.449	5094.46
374.515	4685.07
374.581	4409.72
374.648	4160.13
374.714	3902.8
374.78	3587.16
374.846	3368.57
374.912	3230.03
374.978	3028.29
375.044	2840.73
375.11	2648.79
375.177	2521.38
375.243	2403.39
375.309	2288.16
375.375	2151.97
375.441	2037.86
375.507	1951.4
375.573	1885.32
375.639	1772.05
375.705	1693.85
375.771	1613.34
375.837	1542.29
375.903	1474.57
375.968	1412.56
376.034	1370.45
376.1	1319.55
376.166	1267.66
376.232	1216.3
376.298	1175.68
376.364	1130.07
376.43	1098.46
376.495	1065.91
376.561	1033.64
376.627	1003.4
376.693	976.99
376.759	949.4
376.824	920.98
376.89	900.62
376.956	879.03
377.022	867.1
377.087	839.19
377.153	817.51
377.219	800.99
377.284	786.52
377.35	763.44
377.416	754.8
377.481	742.6
377.547	726.86
377.613	712.84
377.678	696.75
377.744	687.63
377.809	677.22
377.875	674.46
377.94	662.35
378.006	651.7
378.071	642.08
378.137	634.66
378.202	627.8
378.268	615.54
378.333	605.78
378.399	601.44
378.464	599.39
378.53	590.61
378.595	585.68
378.661	580.7
378.726	575.61
378.791	568.45
378.857	564.21
378.922	564.61
378.987	555.54
379.053	552.66
379.118	550.77
379.183	541
379.249	538.43
379.314	535.33
379.379	536.99
379.444	531.24
379.51	525.91
379.575	522.27
379.64	523.19
379.705	519.01
379.771	517.18
379.836	513.99
379.901	505.94
379.966	508.53
380.031	501.32
380.096	507.92
380.161	501.35
380.227	500.96
380.292	491.9
380.357	494.49
380.422	492.29
380.487	486.16
380.552	484.34
380.617	484.1
380.682	485.54
380.747	480.84
380.812	483.57
380.877	476.9
380.942	475.41
381.007	479.89
381.072	477.65
381.137	470.99
381.202	479.22
381.266	468.41
381.331	463.14
381.396	471.13
381.461	468.47
381.526	465.39
381.591	464.74
381.656	458.9
381.72	461.87
381.785	458.46
381.85	465.51
381.915	457.18
381.979	458.19
382.044	459.54
382.109	451.51
382.174	453.31
382.238	457.48
382.303	450.41
382.368	453.63
382.432	448.4
382.497	448.74
382.562	449.36
382.626	450.55
382.691	452.3
382.756	446.83
382.82	445.64
382.885	451.59
382.949	449.35
383.014	442.41
383.078	449.82
383.143	444.43
383.208	440.75
383.272	442.55
383.337	443.93
383.401	442.64
383.465	444.6
383.53	439.92
383.594	437.91
383.659	443.69
383.723	437.05
383.788	440.6
383.852	438.14
383.916	438.3
383.981	435.19
384.045	438.76
384.109	437.51
384.174	434.95
384.238	437.56
384.302	433.07
384.367	431.95
384.431	433.01
384.495	438.33
384.56	432.6
384.624	430.25
384.688	427.77
384.752	428.1
384.816	428
384.881	424.22
384.945	427.52
385.009	429.35
385.073	428.01
385.137	426.12
385.201	425.53
385.265	423.36
385.33	423.58
385.394	427.93
385.458	426.99
385.522	427.9
385.586	428.98
385.65	425.59
385.714	424.83
385.778	423.12
385.842	416.55
385.906	426.97
385.97	419.84
386.034	422.15
386.098	419
386.162	423.02
386.226	415.92
386.29	413.39
386.354	420.66
386.417	419.34
386.481	417.83
386.545	422.01
386.609	414.72
386.673	414.69
386.737	418.07
386.8	417.11
386.864	417.21
386.928	412.3
386.992	423.1
387.056	413.81
387.119	416.65
387.183	414.98
387.247	413.27
387.31	411.63
387.374	408.05
387.438	414.67
387.502	412.09
387.565	409.67
387.629	417.9
387.692	412.72
387.756	405.9
387.82	405.25
387.883	405.58
387.947	407.16
388.01	415.75
388.074	412.33
388.138	408.24
388.201	411.51
388.265	409.64
388.328	409.05
388.392	409.72
388.455	410.27
388.519	407.46
388.582	410.47
388.645	411.71
388.709	413.8
388.772	404.74
388.836	407.24
388.899	407.11
388.962	405.58
389.026	406.61
389.089	410.88
389.153	407.31
389.216	406.78
389.279	405.2
389.343	402.81
389.406	401.91
389.469	403.16
389.532	402.93
389.596	406.27
389.659	403.04
389.722	404.03
389.785	405.41
389.848	403.83
389.912	404.81
389.975	403.93
390.038	404.06
390.101	400.08
390.164	406.87
390.227	401.42
390.291	404.09
390.354	402.98
390.417	401.1
390.48	395.91
390.543	399.33
390.606	399.75
390.669	398.74
390.732	395.6
390.795	400.07
390.858	400.95
390.921	399.71
390.984	398.54
391.047	395.99
391.11	397.35
391.173	397.84
391.236	392.74
391.299	400.03
391.362	399.63
391.424	401.46
391.487	393.61
391.55	398.11
391.613	396.02
391.676	395.52
391.739	397.3
391.802	395.97
391.864	398.89
391.927	399.37
391.99	390.3
392.053	398.11
392.115	392.47
392.178	394.52
392.241	395.16
392.304	388.42
392.366	392.86
392.429	397.53
392.492	390.3
392.554	389.51
392.617	395.22
392.68	394.52
392.742	390.6
392.805	393.2
392.867	398.29
392.93	385.88
392.992	392.6
393.055	388.54
393.118	393.79
393.18	391.26
393.243	394.63
393.305	388.3
393.368	392.85
393.43	389.56
393.493	392.81
393.555	392.53
393.618	392.26
393.68	384.75
393.742	384.04
393.805	393.59
393.867	393.15
393.93	386.19
393.992	385.54
394.054	392.92
394.117	393.69
394.179	386.86
394.241	385.75
394.304	386.04
394.366	387.72
394.428	385.47
394.49	385.54
394.553	388.55
394.615	383.71
394.677	390.67
394.739	391.15
394.802	386.2
394.864	385.51
394.926	388.32
394.988	387.62
395.05	388.44
395.112	386.32
395.174	385.04
395.237	386.06
395.299	383.29
395.361	384.72
395.423	387.5
395.485	383.29
395.547	383.9
395.609	383.3
395.671	383.53
395.733	385.54
395.795	386.18
395.857	387.02
395.919	381.95
395.981	387.6
396.043	382.96
396.105	382.19
396.167	381.82
396.229	378.9
396.291	384.12
396.352	381.51
396.414	386.94
396.476	385.9
396.538	379.38
396.6	382.3
396.662	387.98
396.724	386.28
396.785	380
396.847	382.68
396.909	376.24
396.971	379.12
397.032	380.9
397.094	378.47
397.156	380.9
397.218	379.6
397.279	379.99
397.341	375.97
397.403	377.68
397.464	381.08
397.526	383.09
397.588	380.24
397.649	379.12
397.711	383.72
397.772	380.63
397.834	386.55
397.896	387.46
397.957	378.18
398.019	382.57
398.08	373.64
398.142	379.16
398.203	376.75
398.265	378.51
398.326	378.12
398.388	374.65
398.449	374.58
398.511	381.95
398.572	377.18
398.633	375.56
398.695	380.32
398.756	382.8
398.818	378.39
398.879	379.62
398.94	377.8
399.002	379.06
399.063	379.66
399.124	376.98
399.186	384.25
399.247	376.45
399.308	377.99
399.369	380.38
399.431	376.29
399.492	380.4
399.553	379.11
399.614	377.53
399.676	372.86
399.737	379.45
399.798	379.28
399.859	376.68
399.92	376.18
399.981	370.98
400.042	374.76
400.104	381.51
400.165	371.94
400.226	371.21
400.287	372.71
400.348	371.5
400.409	376.08
400.47	379.82
400.531	376.39
400.592	372.86
400.653	372.87
400.714	372.75
400.775	375.03
400.836	372.28
400.897	373.85
400.958	372.32
401.019	376.42
401.08	373.91
401.141	373.38
401.201	375.41
401.262	377.11
401.323	373.41
401.384	369.57
401.445	373.77
401.506	374.32
401.567	372.91
401.627	370.69
401.688	375.62
401.749	374.96
401.81	372.82
401.87	372.11
401.931	374.34
401.992	374.19
402.053	373.96
402.113	369.21
402.174	374.27
402.235	370.9
402.295	372.48
402.356	371.02
402.417	368.22
402.477	367.25
402.538	370.21
402.598	375
402.659	372.03
402.719	371.23
402.78	368.41
402.841	375.09
402.901	373.92
402.962	373.26
403.022	364.23
403.083	369
403.143	372.86
403.204	365.33
403.264	371.13
403.324	361.83
403.385	370.63
403.445	366.66
403.506	368.59
403.566	374.88
403.627	370.7
403.687	364.14
403.747	372.82
403.808	369.73
403.868	366.98
403.928	369.36
403.989	368.82
404.049	368.96
404.109	367.84
404.169	371.33
404.23	370.69
404.29	367.44
404.35	371.36
404.41	370.55
404.47	365.42
404.531	364.29
404.591	368.82
404.651	423.63
404.711	371.15
404.771	366.68
404.831	365.15
404.892	370.67
404.952	367.45
405.012	366.35
405.072	366.33
405.132	370.34
405.192	372.51
405.252	407.94
405.312	368.8
405.372	368.17
405.432	367.25
405.492	365.26
405.552	369.46
405.612	362.74
405.672	369.27
405.732	367.91
405.792	363.14
405.852	360.73
405.912	363.36
405.971	366.81
406.031	366.95
406.091	358.45
406.151	366.77
406.211	370.6
406.271	368.89
406.33	363.77
406.39	367.43
406.45	366.23
406.51	366.86
406.57	362.94
406.629	369.89
406.689	366.93
406.749	364.83
406.808	365.02
406.868	363.03
406.928	365.81
406.988	362.76
407.047	362.6
407.107	366.98
407.166	365.46
407.226	366.46
407.286	364.68
407.345	362.29
407.405	369.21
407.464	367.82
407.524	364.42
407.584	362.67
407.643	366.04
407.703	369.27
407.762	367.87
407.822	364.23
407.881	366.25
407.941	361.63
408	362.36
408.059	361.23
408.119	364.84
408.178	361.84
408.238	373.17
408.297	363.17
408.356	362.98
408.416	362.15
408.475	364.34
408.535	359.95
408.594	360.9
408.653	363.85
408.712	364.93
408.772	363.83
408.831	358.98
408.89	368.35
408.95	363.08
409.009	362.56
409.068	360.78
409.127	364.22
409.186	357.41
409.246	362.35
409.305	369.33
409.364	365.24
409.423	364.57
409.482	366.85
409.541	358.73
409.6	360.62
409.66	363.98
409.719	367.98
409.778	365.39
409.837	364.74
409.896	362.25
409.955	362.41
410.014	359.17
410.073	367.28
410.132	362.27
410.191	358.02
410.25	364.5
410.309	362.63
410.368	359.09
410.427	365.24
410.486	362.8
410.545	361.92
410.603	359.06
410.662	361.55
410.721	359.14
410.78	363.21
410.839	364.96
410.898	359.42
410.957	360.31
411.015	360.91
411.074	360.46
411.133	366.62
411.192	357.2
411.25	359.57
411.309	355.19
411.368	362.56
411.427	361.34
411.485	360.31
411.544	357.14
411.603	361.16
411.661	356.7
411.72	360.86
411.779	367.24
411.837	362.05
411.896	355.74
411.955	359.82
412.013	361.09
412.072	361.38
412.13	358.37
412.189	362.82
412.247	355.91
412.306	358.58
412.364	357.62
412.423	355.11
412.481	363.63
412.54	360.18
412.598	360.23
412.657	360.21
412.715	359.72
412.774	359.56
412.832	359.9
412.891	362.99
412.949	362.62
413.007	358.38
413.066	357.02
413.124	356.36
413.182	359.53
413.241	361.65
413.299	359.11
413.357	358.58
413.416	356.75
413.474	360.22
413.532	359.11
413.59	360.38
413.649	358.95
413.707	355.2
413.765	359.46
413.823	355.32
413.881	357.47
413.94	357.67
413.998	362.56
414.056	361.56
414.114	361.04
414.172	359.48
414.23	359.77
414.288	358.59
414.347	358.68
414.405	358.17
414.463	358.82
414.521	356.35
414.579	360.99
414.637	356.74
414.695	359.88
414.753	356.84
414.811	354.73
414.869	356.39
414.927	361.01
414.985	359.56
415.043	361.76
415.101	360.54
415.158	354.47
415.216	357.72
415.274	359.96
415.332	365.84
415.39	354.7
415.448	359.13
415.506	362.98
415.563	359.87
415.621	358.83
415.679	355.26
415.737	353.08
415.795	357.87
415.852	357.44
415.91	356.67
415.968	356.01
416.026	358.06
416.083	356.93
416.141	359.51
416.199	355.81
416.256	359.28
416.314	354.53
416.372	357.85
416.429	356.74
416.487	359.72
416.544	355.25
416.602	355.29
416.66	357.52
416.717	354.11
416.775	359.34
416.832	351.2
416.89	358.25
416.947	361.48
417.005	357.85
417.062	357.86
417.12	355.17
417.177	349.58
417.235	356.57
417.292	357.1
417.35	352.64
417.407	354.08
417.464	354
417.522	356.95
417.579	352.9
417.637	361.89
417.694	353.25
417.751	358.78
417.809	357.01
417.866	356.12
417.923	358.74
417.981	355.78
418.038	359.36
418.095	356.01
418.152	356.55
418.21	354.61
418.267	353.83
418.324	356.5
418.381	351.61
418.438	352.58
418.496	353.95
418.553	356.11
418.61	354.58
418.667	357.32
418.724	357.05
418.781	353.09
418.838	353.41
418.895	354.72
418.952	354.55
419.01	352.02
419.067	359.38
419.124	358.41
419.181	358.74
419.238	354.08
419.295	356.73
419.352	360.2
419.409	358.17
419.466	354.94
419.523	358.66
419.579	355.17
419.636	354.49
419.693	349.51
419.75	353.33
419.807	354
419.864	353.8
419.921	350.84
419.978	355.33
420.034	351.89
420.091	352.21
420.148	356.33
420.205	355.89
420.262	353.92
420.318	357.99
420.375	353.75
420.432	349.4
420.489	352.23
420.545	353.26
420.602	356.26
420.659	355.7
420.715	356.62
420.772	354.16
420.829	355.92
420.885	355.55
420.942	362.74
420.999	356.64
421.055	355.94
421.112	356
421.168	358.44
421.225	360.22
421.282	354.24
421.338	356.63
421.395	353.3
421.451	353.69
421.508	357.98
421.564	351.81
421.621	350.36
421.677	347.89
421.734	355.58
421.79	354.99
421.846	354.3
421.903	352
421.959	352.69
422.016	355.09
422.072	350.7
422.128	349.65
422.185	350.41
422.241	355.62
422.297	352.25
422.354	354.08
422.41	351.97
422.466	353.32
422.523	359.27
422.579	352.51
422.635	355.94
422.691	351.82
422.748	351.59
422.804	356.62
422.86	364.81
422.916	356.42
422.972	349.83
423.029	349.95
423.085	353.93
423.141	355.93
423.197	356.43
423.253	356.26
423.309	358.17
423.365	352.47
423.421	356.23
423.477	355.03
423.533	357.36
423.589	347.09
423.645	351.66
423.701	347.15
423.757	352.53
423.813	352.66
423.869	349.87
423.925	355.3
423.981	353.13
424.037	352.08
424.093	352.6
424.149	353.97
424.205	350.61
424.261	356.03
424.317	354.17
424.373	359.22
424.428	350.91
424.484	354.88
424.54	352.47
424.596	358.47
424.652	349.92
424.708	357.48
424.763	358.22
424.819	356.57
424.875	349.34
424.931	352.16
424.986	351.93
425.042	351.12
425.098	354.31
425.153	354.33
425.209	350.68
425.265	354.29
425.32	352.82
425.376	358.05
425.432	352.99
425.487	355.73
425.543	351.98
425.598	353.54
425.654	353.45
425.709	349.5
425.765	347.89
425.82	358.45
425.876	353.93
425.932	349.27
425.987	348.32
426.042	351.39
426.098	351.35
426.153	355.19
426.209	353.1
426.264	352.11
426.32	350.48
426.375	351.32
426.43	349.68
426.486	352.78
426.541	358.45
426.597	349.59
426.652	352.24
426.707	349.36
426.763	349.12
426.818	355.42
426.873	349.63
426.928	351.38
426.984	353.29
427.039	353.7
427.094	348.74
427.149	351.57
427.205	351.16
427.26	356.08
427.315	354.91
427.37	350.38
427.425	351.14
427.48	351.63
427.536	355.8
427.591	353.37
427.646	351.3
427.701	350.59
427.756	354.19
427.811	352.3
427.866	350.48
427.921	355.01
427.976	352.36
428.031	348.29
428.086	348.96
428.141	348
428.196	350.17
428.251	348.94
428.306	351.27
428.361	347.94
428.416	346.71
428.471	352.06
428.526	349.9
428.581	349.45
428.636	351.08
428.691	351.9
428.745	350.79
428.8	351.4
428.855	345.72
428.91	352.48
428.965	346.97
429.02	349.74
429.074	352.21
429.129	350.84
429.184	351.16
429.239	347.85
429.293	348.94
429.348	347.09
429.403	356.79
429.457	353.7
429.512	354.54
429.567	349.36
429.621	351.5
429.676	352.01
429.731	349.01
429.785	352.29
429.84	350.61
429.895	350.07
429.949	351.86
430.004	353.79
430.058	351.36
430.113	348.79
430.167	348.21
430.222	349.66
430.276	351.01
430.331	352.04
430.385	358.32
430.44	345.89
430.494	353.33
430.549	355.07
430.603	348.94
430.657	347.49
430.712	349.28
430.766	347.93
430.821	347.18
430.875	353.47
430.929	353.64
430.984	348.52
431.038	351.13
431.092	349.12
431.147	349.4
431.201	348.11
431.255	348.56
431.309	352.28
431.364	345.32
431.418	347.27
431.472	343.44
431.526	354.03
431.581	346.35
431.635	350.72
431.689	347.44
431.743	347.17
431.797	344.53
431.851	351.16
431.906	349.55
431.96	355.1
432.014	352.7
432.068	347.08
432.122	347.94
432.176	346.69
432.23	352.64
432.284	348.86
432.338	350.37
432.392	352.24
432.446	350.96
432.5	349.53
432.554	346.96
432.608	348.63
432.662	350.28
432.716	353.41
432.77	345.11
432.824	348.01
432.878	348.88
432.931	347.79
432.985	349.05
433.039	350.79
433.093	349.28
433.147	343.98
433.201	346.68
433.254	348.32
433.308	346.93
433.362	346.31
433.416	355.04
433.47	343.25
433.523	353.9
433.577	349.19
433.631	351.74
433.684	348.06
433.738	351.22
433.792	348.66
433.846	345.7
433.899	347.75
433.953	350.46
434.006	351.68
434.06	351.51
434.114	346.14
434.167	346.14
434.221	346.14
