Data from FLMS155811_15-04-41-267.txt Node
Date: Tue May 12 15:04:41 MDT 2026
User: kgale1
Spectrometer: FLMS15581
Trigger mode: 0
Integration Time (sec): 1.700000E-1
Scans to average: 60
Electric dark correction enabled: true
Nonlinearity correction enabled: false
Boxcar width: 0
XAxis mode: Wavelengths
Number of Pixels in Spectrum: 2048
>>>>>Begin Spectral Data<<<<<
298.026	-113.99
298.106	-113.99
298.185	-113.99
298.265	-136.79
298.344	-121.3
298.424	-126.88
298.503	-103.66
298.583	-101.89
298.662	-89.8
298.741	-72.85
298.821	-61.33
298.9	-37.8
298.98	-19.32
299.059	3.8
299.138	24.88
299.217	39.08
299.297	73.1
299.376	89.4
299.455	106.12
299.535	128.32
299.614	148.83
299.693	161
299.772	187.52
299.852	202.86
299.931	225.4
300.01	244.61
300.089	267.69
300.168	283.22
300.247	290.91
300.327	297.3
300.406	306.64
300.485	319.81
300.564	328.57
300.643	329.22
300.722	356.54
300.801	351.38
300.88	353.6
300.959	351.45
301.038	359.14
301.117	362.47
301.196	350.46
301.275	360.6
301.354	363.05
301.433	369.97
301.512	360.52
301.591	371.12
301.67	355.55
301.749	389.11
301.828	359.41
301.907	347.43
301.985	358.88
302.064	351.3
302.143	346.71
302.222	367.79
302.301	351.11
302.38	345.56
302.458	352.98
302.537	334.61
302.616	343.76
302.695	340.16
302.773	343.76
302.852	326.27
302.931	324.21
303.01	331.48
303.088	330.98
303.167	325.81
303.246	331.09
303.324	331.59
303.403	332.97
303.481	321.49
303.56	334
303.639	324.36
303.717	340.05
303.796	329.33
303.874	328.3
303.953	340.78
304.032	331.59
304.11	327.11
304.189	332.97
304.267	329.98
304.346	331.74
304.424	346.06
304.502	332.36
304.581	321.41
304.659	326.31
304.738	342.77
304.816	330.37
304.895	331.71
304.973	327.57
305.051	344.1
305.13	334.5
305.208	337.94
305.286	331.74
305.365	331.74
305.443	339.55
305.521	335.99
305.6	346.82
305.678	344.22
305.756	343.84
305.834	340.78
305.913	334.39
305.991	344.33
306.069	342.92
306.147	345.56
306.225	323.98
306.304	349.08
306.382	350.69
306.46	336.45
306.538	340.35
306.616	334.88
306.694	348.74
306.772	344.37
306.85	343.91
306.929	347.43
307.007	338.63
307.085	349.69
307.163	352.29
307.241	345.9
307.319	341.35
307.397	342.65
307.475	332.43
307.553	342.73
307.631	339.86
307.709	337.79
307.786	335.3
307.864	338.44
307.942	353.9
308.02	344.37
308.098	348.16
308.176	356.04
308.254	359.34
308.332	347.28
308.409	346.06
308.487	350.88
308.565	353.75
308.643	347.4
308.721	354.28
308.798	346.82
308.876	344.68
308.954	357.5
309.032	352.37
309.109	349.62
309.187	344.56
309.265	366.15
309.342	357.23
309.42	347.63
309.498	352.91
309.575	353.4
309.653	349.04
309.731	341.62
309.808	349
309.886	361.94
309.963	356.62
310.041	360.6
310.119	352.1
310.196	345.75
310.274	349.65
310.351	350.8
310.429	351.41
310.506	352.87
310.584	355.93
310.661	363.85
310.738	347.74
310.816	347.97
310.893	364.85
310.971	354.05
311.048	348.28
311.126	357.35
311.203	355.28
311.28	346.48
311.358	352.03
311.435	348.51
311.512	361.9
311.59	365.11
311.667	338.98
311.744	357.08
311.821	345.98
311.899	355.58
311.976	355.58
312.053	358.72
312.13	365.92
312.208	354.05
312.285	364.85
312.362	367.1
312.439	351.45
312.516	351.91
312.593	349.77
312.671	356.54
312.748	356.27
312.825	359.26
312.902	355.74
312.979	360.6
313.056	357.08
313.133	359.99
313.21	357.61
313.287	353.9
313.364	359.99
313.441	363.77
313.518	369.05
313.595	353.6
313.672	363.66
313.749	361.67
313.826	368.21
313.903	364.62
313.98	355.2
314.057	356.39
314.134	365.46
314.211	372.88
314.287	353.02
314.364	364.19
314.441	375.33
314.518	372.8
314.595	362.59
314.672	362.28
314.748	368.56
314.825	368.79
314.902	358.19
314.979	366.34
315.055	363.47
315.132	382.72
315.209	365.46
315.286	356.85
315.362	378.2
315.439	370.62
315.516	361.94
315.592	375.67
315.669	369.25
315.746	371.16
315.822	365.46
315.899	370.36
315.975	372.35
316.052	369.09
316.128	361.63
316.205	364.58
316.282	381.3
316.358	365.5
316.435	426.11
316.511	369.82
316.588	369.09
316.664	368.44
316.741	395.8
316.817	371.47
316.893	356.77
316.97	362.97
317.046	361.94
317.123	358.91
317.199	377.44
317.275	374.95
317.352	358.11
317.428	370.01
317.504	370.39
317.581	365.96
317.657	372.31
317.733	362.21
317.81	368.06
317.886	369.25
317.962	375.22
318.038	372.84
318.115	380.15
318.191	370.89
318.267	379.31
318.343	376.06
318.419	362.51
318.496	366.53
318.572	376.36
318.648	375.33
318.724	360.37
318.8	374.64
318.876	374.57
318.952	367.14
319.028	365.27
319.105	374.18
319.181	365.27
319.257	376.13
319.333	376.56
319.409	375.71
319.485	371.01
319.561	364.23
319.637	375.18
319.713	378.81
319.789	366.49
319.865	373.91
319.94	373.38
320.016	361.59
320.092	365.34
320.168	373.95
320.244	370.43
320.32	371.16
320.396	369.02
320.472	375.98
320.547	377.55
320.623	373.3
320.699	384.32
320.775	365.53
320.851	372.54
320.926	369.36
321.002	366.45
321.078	368.86
321.154	377.93
321.229	374.57
321.305	380.23
321.381	374.87
321.456	364.5
321.532	371.7
321.608	370.59
321.683	374.79
321.759	375.02
321.835	372.15
321.91	370.47
321.986	370.43
322.061	374.68
322.137	376.13
322.212	366.03
322.288	371.96
322.364	370.51
322.439	381.45
322.515	375.56
322.59	376.13
322.666	383.67
322.741	394.08
322.816	378.47
322.892	376.4
322.967	400.32
323.043	378.16
323.118	379.81
323.193	374.76
323.269	379.39
323.344	370.7
323.42	372.61
323.495	370.39
323.57	378.28
323.646	367.37
323.721	379.39
323.796	374.11
323.871	375.6
323.947	368.63
324.022	382.18
324.097	373.38
324.172	381.76
324.248	377.74
324.323	383.37
324.398	401.05
324.473	377.05
324.548	377.86
324.623	376.29
324.699	373.34
324.774	391.21
324.849	372.04
324.924	379.08
324.999	377.86
325.074	387.73
325.149	390.91
325.224	399.36
325.299	720.23
325.374	408.13
325.449	379.27
325.524	381.26
325.599	381.95
325.674	386.39
325.749	396.45
325.824	383.56
325.899	385.05
325.974	384.4
326.049	384.29
326.124	387.88
326.199	377.86
326.273	379.88
326.348	398.02
326.423	391.59
326.498	379.96
326.573	387.73
326.648	395.27
326.722	370.05
326.797	384.48
326.872	387.12
326.947	372.92
327.021	379.23
327.096	388.69
327.171	381.38
327.245	385.97
327.32	378.77
327.395	380.42
327.47	375.79
327.544	377.28
327.619	375.22
327.693	438.74
327.768	382.45
327.843	379.65
327.917	376.9
327.992	378.51
328.066	388.92
328.141	383.29
328.215	379.65
328.29	389.57
328.364	381.34
328.439	377.97
328.513	396.03
328.588	376.67
328.662	379.35
328.737	386.47
328.811	374.68
328.886	377.09
328.96	381.95
329.035	377.13
329.109	387.12
329.183	388.61
329.258	386.35
329.332	389.53
329.406	378.74
329.481	385.66
329.555	385.2
329.629	384.71
329.704	387.27
329.778	382.03
329.852	378.39
329.926	379.5
330.001	391.9
330.075	384.29
330.149	387.38
330.223	389.57
330.297	387.96
330.372	396.68
330.446	384.13
330.52	392.28
330.594	379.77
330.668	389.18
330.742	379.46
330.816	383.75
330.89	387.31
330.964	374.91
331.038	392.47
331.113	385.66
331.187	392.44
331.261	388.88
331.335	380
331.409	387.92
331.483	383.63
331.557	380.11
331.63	386.81
331.704	377.4
331.778	398.52
331.852	383.48
331.926	385.28
332	386.62
332.074	387.27
332.148	392.21
332.222	388.19
332.295	386.2
332.369	394.66
332.443	393.47
332.517	384.71
332.591	394.35
332.665	388.19
332.738	389.53
332.812	383.37
332.886	388.11
332.959	383.83
333.033	390.94
333.107	398.86
333.181	388.76
333.254	391.13
333.328	390.6
333.402	387.46
333.475	385.93
333.549	388.8
333.622	383.25
333.696	394.88
333.77	390.45
333.843	397.41
333.917	382.07
333.99	429.67
334.064	389.8
334.137	386.62
334.211	376.78
334.284	383.83
334.358	400.36
334.431	391.82
334.505	378.47
334.578	395.65
334.652	380
334.725	409.5
334.799	387.38
334.872	396.8
334.945	408.62
335.019	385.82
335.092	390.64
335.165	391.82
335.239	382.98
335.312	391.02
335.385	392.05
335.459	389.26
335.532	394.73
335.605	394.73
335.678	415.09
335.752	394.96
335.825	392.09
335.898	391.02
335.971	414.4
336.045	394.96
336.118	392.63
336.191	393.35
336.264	405.06
336.337	393.12
336.41	390.41
336.483	391.36
336.557	385.55
336.63	385.32
336.703	426.49
336.776	391.06
336.849	397.07
336.922	387.96
336.995	385.89
337.068	385.97
337.141	397.18
337.214	386.58
337.287	383.1
337.36	389.34
337.433	390.14
337.506	386.01
337.579	390.18
337.652	394.04
337.725	393.85
337.797	395.61
337.87	386.5
337.943	391.67
338.016	389.99
338.089	394.46
338.162	387.04
338.235	390.75
338.307	398.98
338.38	392.17
338.453	386.54
338.526	390.37
338.598	418.84
338.671	393.09
338.744	393.66
338.817	397.98
338.889	392.28
338.962	397.03
339.035	391.67
339.107	392.09
339.18	391.79
339.253	394.54
339.325	382.18
339.398	388.11
339.47	392.59
339.543	413.18
339.616	398.56
339.688	400.97
339.761	405.45
339.833	412.22
339.906	398.67
339.978	385.97
340.051	397.53
340.123	398.1
340.196	393.89
340.268	396.49
340.341	396.99
340.413	396.65
340.485	398.41
340.558	393.47
340.63	414.78
340.703	397.95
340.775	394.5
340.847	385.39
340.92	394.2
340.992	396.15
341.064	398.86
341.137	389.41
341.209	396.57
341.281	396.19
341.354	398.9
341.426	396.11
341.498	400.97
341.57	388.84
341.643	404.34
341.715	398.94
341.787	392.21
341.859	406.75
341.931	393.97
342.003	402.04
342.076	400.74
342.148	413.37
342.22	402.58
342.292	407.7
342.364	391.21
342.436	401.28
342.508	399.36
342.58	397.87
342.652	404.11
342.724	426.42
342.796	394.2
342.868	413.44
342.94	400.59
343.012	411.84
343.084	400.7
343.156	401.77
343.228	400.85
343.3	401.47
343.372	405.26
343.444	394.43
343.516	401.66
343.588	408.51
343.66	401.62
343.731	398.48
343.803	397.68
343.875	404.57
343.947	405.91
344.019	406.56
344.09	401.2
344.162	403.88
344.234	412.76
344.306	399.86
344.377	419.49
344.449	409.01
344.521	420.29
344.593	409.96
344.664	406.21
344.736	410.19
344.808	398.79
344.879	400.66
344.951	397.72
345.023	398.44
345.094	402.08
345.166	401.24
345.237	412.83
345.309	404.99
345.38	414.63
345.452	407.97
345.524	399.97
345.595	406.4
345.667	401.35
345.738	402.39
345.81	414.59
345.881	409.2
345.953	420.49
346.024	411.15
346.095	417.04
346.167	401.01
346.238	405.98
346.31	422.63
346.381	412.07
346.452	408.2
346.524	403.34
346.595	410.57
346.666	429.02
346.738	409.54
346.809	400.51
346.88	420.56
346.952	404.03
347.023	417
347.094	407.82
347.165	428.94
347.237	418.23
347.308	402.84
347.379	403.04
347.45	418.46
347.521	425.04
347.593	415.43
347.664	418.38
347.735	412.95
347.806	408.13
347.877	422.02
347.948	409.2
348.019	401.81
348.09	406.1
348.161	422.28
348.233	410.69
348.304	428.14
348.375	422.51
348.446	426.42
348.517	413.67
348.588	420.22
348.659	412.18
348.73	414.63
348.801	419.95
348.871	413.67
348.942	420.6
349.013	414.82
349.084	407.17
349.155	418.5
349.226	421.4
349.297	418.04
349.368	411.57
349.439	423.81
349.509	418.34
349.58	420.98
349.651	413.75
349.722	416.51
349.793	416.66
349.863	423.09
349.934	422.78
350.005	430.01
350.076	419.95
350.146	422.78
350.217	405.48
350.288	423.59
350.358	421.98
350.429	423.59
350.5	423.85
350.57	440.84
350.641	412.68
350.711	414.71
350.782	419.11
350.853	424.77
350.923	422.82
350.994	421.75
351.064	419.49
351.135	424.24
351.205	419.61
351.276	426.68
351.346	425.19
351.417	438.55
351.487	431.51
351.558	419.3
351.628	430.21
351.699	423.78
351.769	437.82
351.84	440.5
351.91	424.2
351.98	422.9
352.051	425.96
352.121	426.88
352.191	418.3
352.262	423.36
352.332	445.13
352.402	426.38
352.473	434.64
352.543	438.66
352.613	437.78
352.683	429.17
352.754	427.83
352.824	432.81
352.894	435.75
352.964	436.52
353.035	427.91
353.105	430.59
353.175	430.21
353.245	424.24
353.315	433.88
353.385	443.48
353.455	442.8
353.526	431.28
353.596	430.51
353.666	443.29
353.736	434.26
353.806	429.44
353.876	435.91
353.946	429.4
354.016	441.42
354.086	437.21
354.156	432.35
354.226	438.28
354.296	436.06
354.366	433.27
354.436	433.73
354.506	428.18
354.576	430.74
354.645	439.81
354.715	448.92
354.785	437.86
354.855	442.53
354.925	440.12
354.995	437.51
355.065	437.02
355.134	450.98
355.204	441.26
355.274	437.09
355.344	440.08
355.414	449.3
355.483	446.62
355.553	440.65
355.623	446.51
355.693	435.45
355.762	448.8
355.832	443.29
355.902	450.79
355.971	449.22
356.041	464.49
356.111	444.36
356.18	440.96
356.25	441.07
356.319	445.67
356.389	447.23
356.459	440.54
356.528	451.37
356.598	439.77
356.667	444.21
356.737	447.04
356.806	450.95
356.876	443.1
356.945	450.33
357.015	446.01
357.084	447.54
357.154	454.2
357.223	458.6
357.292	460.63
357.362	450.79
357.431	455.96
357.501	460.86
357.57	451.18
357.639	452.63
357.709	457.91
357.778	447.58
357.847	453.17
357.917	463.8
357.986	470.23
358.055	455.35
358.124	463.15
358.194	482.1
358.263	1068.92
358.332	495.26
358.401	457.64
358.471	464.65
358.54	452.67
358.609	458.98
358.678	467.82
358.747	460.47
358.816	469.93
358.886	469.96
358.955	461.7
359.024	463.34
359.093	473.83
359.162	475.86
359.231	460.02
359.3	461.58
359.369	471.76
359.438	467.86
359.507	458.37
359.576	469.81
359.645	468.82
359.714	473.45
359.783	472.15
359.852	474.79
359.921	476.78
359.99	474.86
360.059	482.59
360.128	476.62
360.197	475.7
360.266	482.71
360.334	484.54
360.403	478.8
360.472	463.5
360.541	483.09
360.61	485.73
360.679	484.7
360.747	476.32
360.816	485.39
360.885	480.53
360.954	495.45
361.022	491.28
361.091	490.02
361.16	481.14
361.228	501.76
361.297	490.25
361.366	498.32
361.434	501.57
361.503	509.46
361.572	494.72
361.64	489.82
361.709	498.47
361.778	494.38
361.846	492.92
361.915	504.17
361.983	506.89
362.052	510.49
362.12	518.56
362.189	513.78
362.257	515.2
362.326	519.41
362.394	521.17
362.463	523.96
362.531	513.32
362.6	523.88
362.668	535.97
362.737	519.52
362.805	525.49
362.873	540.53
362.942	545.04
363.01	541.33
363.079	541.33
363.147	544.2
363.215	539.76
363.284	552.77
363.352	544.66
363.42	561.96
363.488	574.82
363.557	570.3
363.625	574.55
363.693	586.18
363.761	592.49
363.83	603.71
363.898	599.31
363.966	609.18
364.034	617.14
364.102	618.98
364.171	613.35
364.239	641.13
364.307	637.69
364.375	642.7
364.443	653.57
364.511	665.62
364.579	682.42
364.647	702.05
364.715	701.94
364.783	711.28
364.851	720.57
364.919	764.43
364.987	762.82
365.055	744.07
365.123	768.98
365.191	786.28
365.259	819
365.327	804.61
365.395	815.51
365.463	843.87
365.531	847.96
365.599	874.87
365.667	882.02
365.735	912.25
365.802	927.25
365.87	946.92
365.938	982.51
366.006	992.42
366.074	1005.51
366.142	1038.99
366.209	1054.68
366.277	1075.77
366.345	1086.56
366.413	1134.74
366.48	1181.12
366.548	1181.23
366.616	1212.34
366.683	1227.8
366.751	1269.47
366.819	1295.3
366.886	1311.57
366.954	1381.37
367.022	1460.92
367.089	1424.95
367.157	1433.45
367.224	1675.56
367.292	1586.05
367.36	1617.85
367.427	1650.08
367.495	1664.96
367.562	1699.94
367.63	1719.95
367.697	1776.93
367.765	1832.99
367.832	1857.14
367.9	1867.28
367.967	1925.56
368.034	1956.13
368.102	2028.53
368.169	2122.82
368.237	2112.49
368.304	2145.78
368.371	2145.82
368.439	2265.18
368.506	2343.47
368.573	2311.29
368.641	2387.9
368.708	2483.79
368.775	2459.95
368.843	2523.13
368.91	2619.76
368.977	2695.52
369.044	2776.99
369.112	2844.92
369.179	2916.32
369.246	2980.19
369.313	3136.63
369.38	3085.81
369.448	3068.36
369.515	3274.62
369.582	3377.13
369.649	3446.51
369.716	3533.19
369.783	3634.44
369.85	3759.76
369.917	3729.49
369.984	3916.01
370.052	4058.74
370.119	4129.65
370.186	4376.78
370.253	4380.99
370.32	4718.46
370.387	5042.01
370.454	5064.32
370.521	4956.56
370.587	4951.35
370.654	5387.83
370.721	5435.89
370.788	5380.9
370.855	5287.45
370.922	5481.96
370.989	5651.41
371.056	5699.05
371.123	5910.4
371.189	6002.2
371.256	6215.61
371.323	6391.87
371.39	6508.81
371.457	6598.59
371.523	6697.89
371.59	6971.04
371.657	7078.42
371.724	7078.49
371.79	7220.77
371.857	7271.17
371.924	7383.48
371.991	7530.31
372.057	7752.14
372.124	7883.66
372.191	7992.72
372.257	8132.05
372.324	8392.73
372.39	8562.06
372.457	8926.17
372.524	9238
372.59	9142.95
372.657	9102.88
372.723	9517.47
372.79	9773.36
372.856	9573.8
372.923	9706.39
372.989	10114.51
373.056	10720.04
373.122	11183.37
373.189	11148.51
373.255	10846.89
373.322	10428.45
373.388	10671.33
373.454	11081.89
373.521	10992.81
373.587	10998.32
373.654	11695.27
373.72	12536.45
373.786	12202.42
373.853	12399.23
373.919	12202.08
373.985	11936.7
374.052	12355.83
374.118	12533.16
374.184	13160.24
374.25	13565.6
374.317	14089.32
374.383	14260.49
374.449	14680.04
374.515	14455.69
374.581	14830.66
374.648	15115.6
374.714	15385.3
374.78	15792.35
374.846	16472.04
374.912	17107.23
374.978	17330.21
375.044	17465.87
375.11	17745.52
375.177	18296.11
375.243	18578.55
375.309	18809.99
375.375	18565.85
375.441	19208.81
375.507	20497.48
375.573	21042.86
375.639	20773
375.705	21071.02
375.771	22312.78
375.837	23362.75
375.903	24195.24
375.968	24012.37
376.034	23745.95
376.1	24165.82
376.166	24435.71
376.232	24842.03
376.298	25181.07
376.364	25685.39
376.43	26710.87
376.495	27357.69
376.561	27457.91
376.627	26914.87
376.693	28010.6
376.759	27866.1
376.824	27871.08
376.89	29626.72
376.956	30095.49
377.022	30254.53
377.087	30028.75
377.153	30963.53
377.219	31902.07
377.284	30017.12
377.35	29752.28
377.416	30777.1
377.481	33125.46
377.547	34385.93
377.613	33660.24
377.678	33680.14
377.744	34074.44
377.809	34304.8
377.875	35691.59
377.94	36074.38
378.006	36727.28
378.071	37123.08
378.137	37181.05
378.202	37034.91
378.268	38121.19
378.333	39626.95
378.399	39652.82
378.464	39306.81
378.53	40533.53
378.595	39963.82
378.661	40532.61
378.726	40943.29
378.791	41292.48
378.857	42073.62
378.922	43689.86
378.987	44246.1
379.053	42783.2
379.118	42493.83
379.183	43352.5
379.249	44975.47
379.314	46204.37
379.379	46630.01
379.444	47604.36
379.51	47843.72
379.575	47572.94
379.64	49278.23
379.705	49277.46
379.771	50400.75
379.836	50061.13
379.901	51548.91
379.966	51917.64
380.031	52401.03
380.096	53626.03
380.161	54159.89
380.227	53108.2
380.292	53369.14
380.357	54574.01
380.422	56176.59
380.487	56332.49
380.552	55506.54
380.617	55568.72
380.682	56226.26
380.747	56902.51
380.812	57022.36
380.877	56934.73
380.942	56156.65
381.007	57148.95
381.072	57629.24
381.137	56409.02
381.202	56202.92
381.266	55733.31
381.331	55717.96
381.396	55172.12
381.461	54617.83
381.526	54975.2
381.591	55954.03
381.656	56437.84
381.72	56663.11
381.785	55203.43
381.85	54592.3
381.915	54789.19
381.979	54862.81
382.044	54523.69
382.109	54240.1
382.174	53580.68
382.238	54364.04
382.303	54573.78
382.368	53447.55
382.432	54260.99
382.497	54155.87
382.562	52670.97
382.626	52731.39
382.691	52523.49
382.756	52330.77
382.82	51654.75
382.885	51936.28
382.949	52950.66
383.014	52077.45
383.078	52105.92
383.143	51471.91
383.208	49321.16
383.272	49625.88
383.337	51112.4
383.401	50703.82
383.465	51308.05
383.53	52553.03
383.594	51983.16
383.659	52361.35
383.723	53540.58
383.788	54663.83
383.852	54812.3
383.916	54316.13
383.981	54093
384.045	55896.21
384.109	55003.29
384.174	55677.78
384.238	56578.85
384.302	56826.97
384.367	58519.05
384.431	58863.72
384.495	58728.14
384.56	59267.48
384.624	60346.1
384.688	60487.12
384.752	59814.08
384.816	59763.22
384.881	59784.16
384.945	60614.93
385.009	60938.17
385.073	59818.67
385.137	59074.84
385.201	59502.7
385.265	57647.03
385.33	55237.29
385.394	53375.38
385.458	52717.04
385.522	51814.48
385.586	48396.75
385.65	44028.86
385.714	38909.76
385.778	35775.24
385.842	33131.08
385.906	30779.39
385.97	28160.72
386.034	25232.01
386.098	22606.44
386.162	20603.25
386.226	18669.86
386.29	16648.99
386.354	15282.48
386.417	14042.63
386.481	12754.57
386.545	11348.42
386.609	10400.63
386.673	9490.41
386.737	8670.12
386.8	8048.86
386.864	7576.92
386.928	6955.85
386.992	6505.26
387.056	6170.61
387.119	5641.3
387.183	5218.19
387.247	4943.93
387.31	4628.5
387.374	4341.73
387.438	4093.3
387.502	3984.12
387.565	3729.88
387.629	3569
387.692	3375.68
387.756	3147.92
387.82	2984.98
387.883	2822.65
387.947	2700.65
388.01	2612.79
388.074	2444.8
388.138	2359.08
388.201	2306.62
388.265	2253.08
388.328	2193.08
388.392	2138.97
388.455	2057.16
388.519	2015.83
388.582	1947.41
388.645	1889.17
388.709	1846.12
388.772	1782.02
388.836	1714.25
388.899	1665.88
388.962	1637.49
389.026	1593.78
389.089	1549.05
389.153	1523.03
389.216	1482.24
389.279	1457.13
389.343	1412.74
389.406	1384.73
389.469	1333.99
389.532	1326.72
389.596	1305.02
389.659	1272.92
389.722	1241.69
389.785	1210.27
389.848	1190.26
389.912	1167.76
389.975	1140.44
390.038	1121.07
390.101	1073.51
390.164	1077.14
390.227	1062.49
390.291	1046.53
390.354	1019.4
390.417	1021.81
390.48	989.25
390.543	976.08
390.606	949.07
390.669	933.72
390.732	921.47
390.795	914.05
390.858	903.8
390.921	900.73
390.984	879.57
391.047	877.16
391.11	864
391.173	855.81
391.236	839.12
391.299	847.62
391.362	832.12
391.424	812.87
391.487	802.04
391.55	803.54
391.613	784.67
391.676	789.03
391.739	774.49
391.802	783.52
391.864	774.72
391.927	756.54
391.99	738.6
392.053	735.38
392.115	739.29
392.178	728.72
392.241	741.85
392.304	718.51
392.366	709.21
392.429	717.59
392.492	693.56
392.554	692.68
392.617	690.5
392.68	665.39
392.742	676.07
392.805	670.9
392.867	669.26
392.93	653.11
392.992	649.44
393.055	646.18
393.118	655.71
393.18	640.44
393.243	648.25
393.305	624.79
393.368	637.61
393.43	617.48
393.493	620.43
393.555	613.2
393.618	623.11
393.68	613.31
393.742	609.68
393.805	608.68
393.867	612.36
393.93	600.72
393.992	591.46
394.054	590.16
394.117	608.76
394.179	589.47
394.241	599
394.304	581.67
394.366	589.74
394.428	581.7
394.49	574.32
394.553	573.59
394.615	568.12
394.677	579.29
394.739	563.45
394.802	575.31
394.864	574.93
394.926	564.37
394.988	569
395.05	577.07
395.112	575.77
395.174	563.11
395.237	560.73
395.299	553.96
395.361	554.8
395.423	550.52
395.485	547.15
395.547	549.75
395.609	553
395.671	551.89
395.733	552.16
395.795	558.4
395.857	547.76
395.919	539.19
395.981	543.82
396.043	528.02
396.105	533.1
396.167	533.68
396.229	539.19
396.291	530.23
396.352	529.66
396.414	541.41
396.476	528.32
396.538	522.66
396.6	528.74
396.662	532.07
396.724	526.22
396.785	527.29
396.847	515.92
396.909	518.98
396.971	510.14
397.032	508.73
397.094	511.83
397.156	524.46
397.218	506.13
397.279	501.11
397.341	510.22
397.403	515
397.464	509.15
397.526	506.16
397.588	499.85
397.649	495.99
397.711	508.23
397.772	515.62
397.834	523.35
397.896	503.95
397.957	493.84
398.019	503.98
398.08	486.8
398.142	493.58
398.203	491.97
398.265	495.14
398.326	487.3
398.388	488.6
398.449	483.36
398.511	500.46
398.572	477.35
398.633	479.11
398.695	487.91
398.756	491.97
398.818	477.35
398.879	489.14
398.94	484.39
399.002	481.41
399.063	491.97
399.124	484.85
399.186	494.91
399.247	477.81
399.308	486.88
399.369	474.44
399.431	474.75
399.492	496.29
399.553	472.99
399.614	464.87
399.676	469.85
399.737	486.76
399.798	481.71
399.859	465.33
399.92	466.79
399.981	466.06
400.042	466.71
400.104	467.71
400.165	451.86
400.226	469.85
400.287	459.75
400.348	460.51
400.409	477.81
400.47	477.96
400.531	459.02
400.592	466.71
400.653	461.09
400.714	453.59
400.775	453.93
400.836	458.98
400.897	466.33
400.958	457.68
401.019	456.34
401.08	450.64
401.141	457.83
401.201	457.3
401.262	463.42
401.323	439.66
401.384	452.48
401.445	447.58
401.506	465.3
401.567	460.82
401.627	447.73
401.688	435.95
401.749	441.15
401.81	446.89
401.87	447.31
401.931	460.44
401.992	455.81
402.053	458.22
402.113	458.98
402.174	465.83
402.235	450.37
402.295	445.82
402.356	442.8
402.417	446.97
402.477	447.58
402.538	445.32
402.598	477.04
402.659	456.34
402.719	437.25
402.78	449.19
402.841	467.09
402.901	447.12
402.962	445.36
403.022	436.06
403.083	447.2
403.143	430.97
403.204	441.34
403.264	435.87
403.324	432.62
403.385	443.25
403.445	435.64
403.506	441.76
403.566	452.82
403.627	444.59
403.687	430.05
403.747	442.34
403.808	425.38
403.868	437.17
403.928	448.34
403.989	444.78
404.049	429.33
404.109	439.7
404.169	435.68
404.23	446.97
404.29	424.85
404.35	429.71
404.41	447.88
404.47	436.86
404.531	428.67
404.591	436.94
404.651	644.69
404.711	444.52
404.771	427.3
404.831	424.2
404.892	430.13
404.952	431.2
405.012	423.55
405.072	436.02
405.132	428.37
405.192	449.49
405.252	599.15
405.312	426.19
405.372	439.58
405.432	417.27
405.492	423.16
405.552	437.44
405.612	431.97
405.672	425.23
405.732	418.65
405.792	416.35
405.852	419.3
405.912	422.48
405.971	426.19
406.031	427.76
406.091	428.67
406.151	419.87
406.211	428.52
406.271	432.96
406.33	424.5
406.39	419.87
406.45	425.84
406.51	418.57
406.57	420.45
406.629	426.26
406.689	424.73
406.749	421.14
406.808	431.85
406.868	417.65
406.928	420.1
406.988	416.2
407.047	414.09
407.107	423.93
407.166	424.27
407.226	423.32
407.286	419.38
407.345	412.72
407.405	422.02
407.464	418.07
407.524	419.34
407.584	417.88
407.643	417
407.703	417.5
407.762	426.23
407.822	421.98
407.881	415.93
407.941	416.39
408	422.67
408.059	410.84
408.119	413.98
408.178	419.45
408.238	428.87
408.297	395.96
408.356	416.39
408.416	410.61
408.475	405.6
408.535	421.29
408.594	411.57
408.653	408.7
408.712	413.44
408.772	412.45
408.831	417.77
408.89	419.41
408.95	413.44
409.009	414.67
409.068	400.51
409.127	415.59
409.186	403.84
409.246	403.46
409.305	412.37
409.364	410.96
409.423	405.52
409.482	419.87
409.541	409.04
409.6	393.89
409.66	420.33
409.719	423.43
409.778	403.88
409.837	409.85
409.896	397.79
409.955	401.54
410.014	416.24
410.073	433.69
410.132	401.16
410.191	401.51
410.25	415.66
410.309	408.05
410.368	403.88
410.427	399.44
410.486	404.15
410.545	411.65
410.603	401.96
410.662	403.65
410.721	406.17
410.78	424.16
410.839	396.61
410.898	408.47
410.957	412.83
411.015	400.2
411.074	404.22
411.133	412.68
411.192	397.22
411.25	413.41
411.309	397.64
411.368	406.33
411.427	405.64
411.485	401.93
411.544	399.63
411.603	406.48
411.661	391.86
411.72	398.75
411.779	431.97
411.837	411.03
411.896	395.69
411.955	398.18
412.013	393.81
412.072	402.12
412.13	403.72
412.189	400.36
412.247	400.66
412.306	397.53
412.364	384.78
412.423	395.31
412.481	399.44
412.54	402.5
412.598	398.48
412.657	406.17
412.715	398.64
412.774	399.9
412.832	400.09
412.891	408.39
412.949	389.91
413.007	404.83
413.066	404.72
413.124	391.21
413.182	395.31
413.241	402
413.299	391.56
413.357	388.34
413.416	391.52
413.474	391.06
413.532	415.59
413.59	394.62
413.649	405.83
413.707	400.05
413.765	397.83
413.823	397.64
413.881	392.05
413.94	400.74
413.998	399.48
414.056	407.82
414.114	393.97
414.172	394.88
414.23	395.88
414.288	402.65
414.347	390.71
414.405	396.3
414.463	416.39
414.521	403.46
414.579	408.97
414.637	389.95
414.695	391.71
414.753	393.05
414.811	388.11
414.869	391.98
414.927	403.11
414.985	400.13
415.043	390.64
415.101	403.88
415.158	387.61
415.216	388.88
415.274	396.91
415.332	393.39
415.39	393.58
415.448	391.63
415.506	400.82
415.563	380.8
415.621	390.91
415.679	401.93
415.737	386.16
415.795	397.18
415.852	384.71
415.91	383.79
415.968	393.35
416.026	403.49
416.083	402.5
416.141	397.26
416.199	393.66
416.256	385.89
416.314	394.2
416.372	391.4
416.429	380.8
416.487	414.06
416.544	393.62
416.602	392.21
416.66	391.44
416.717	382.91
416.775	397.07
416.832	379.62
416.89	393.89
416.947	400.55
417.005	384.13
417.062	385.66
417.12	385.97
417.177	386.12
417.235	381.99
417.292	391.52
417.35	384.55
417.407	400.2
417.464	382.33
417.522	375.87
417.579	377.01
417.637	388.38
417.694	381.03
417.751	378.43
417.809	384.74
417.866	380
417.923	388.92
417.981	382.14
418.038	386.77
418.095	391.59
418.152	394.81
418.21	381.72
418.267	378.62
418.324	382.03
418.381	381.57
418.438	380.61
418.496	378.09
418.553	382.1
418.61	377.82
418.667	385.97
418.724	379.69
418.781	380.5
418.838	379
418.895	386.12
418.952	382.64
419.01	378.28
419.067	391.36
419.124	384.55
419.181	394.69
419.238	372.42
419.295	381.49
419.352	382.14
419.409	376.9
419.466	379.39
419.523	382.64
419.579	382.75
419.636	381.07
419.693	366.99
419.75	378.43
419.807	381.84
419.864	396.57
419.921	386.43
419.978	382.95
420.034	389.49
420.091	386.58
420.148	391.48
420.205	385.66
420.262	378.28
420.318	384.71
420.375	391.25
420.432	371.31
420.489	380.42
420.545	374.87
420.602	375.18
420.659	379.27
420.715	381.95
420.772	369.32
420.829	370.09
420.885	380.46
420.942	394.81
420.999	379.73
421.055	394.62
421.112	376.13
421.168	383.86
421.225	379.35
421.282	383.56
421.338	375.18
421.395	379.73
421.451	380.69
421.508	400.4
421.564	375.37
421.621	367.52
421.677	375.94
421.734	373.34
421.79	374.34
421.846	380.11
421.903	375.79
421.959	368.1
422.016	379.2
422.072	370.59
422.128	364.96
422.185	371.12
422.241	374.41
422.297	370.43
422.354	384.51
422.41	385.36
422.466	368.63
422.523	371.2
422.579	363.35
422.635	371.81
422.691	369.32
422.748	383.33
422.804	383.44
422.86	398.9
422.916	370.09
422.972	367.79
423.029	368.67
423.085	371.62
423.141	392.32
423.197	381.42
423.253	381.76
423.309	381.45
423.365	371.35
423.421	381.49
423.477	374.57
423.533	391.29
423.589	372.12
423.645	367.22
423.701	366.72
423.757	378.01
423.813	382.41
423.869	374.99
423.925	373.76
423.981	377.01
424.037	377.47
424.093	378.05
424.149	370.36
424.205	362.13
424.261	378.39
424.317	373.8
424.373	371.39
424.428	380.34
424.484	372.77
424.54	367.06
424.596	385.17
424.652	370.93
424.708	380.92
424.763	368.94
424.819	377.28
424.875	367.68
424.931	370.05
424.986	375.1
425.042	372.23
425.098	380.84
425.153	379.43
425.209	374.91
425.265	378.43
425.32	374.34
425.376	381.3
425.432	378.2
425.487	373.23
425.543	360.41
425.598	369.44
425.654	375.45
425.709	366.34
425.765	361.44
425.82	370.2
425.876	364.39
425.932	365.15
425.987	364.08
426.042	373.8
426.098	379.39
426.153	379.04
426.209	375.29
426.264	367.64
426.32	372.73
426.375	369.02
426.43	371.43
426.486	372.31
426.541	382.03
426.597	371.77
426.652	371.73
426.707	377.66
426.763	374.57
426.818	370.16
426.873	366.68
426.928	373.61
426.984	365.19
427.039	366.8
427.094	371.16
427.149	370.85
427.205	365.99
427.26	367.98
427.315	367.83
427.37	375.98
427.425	365.34
427.48	370.85
427.536	378.66
427.591	363.85
427.646	379.5
427.701	368.56
427.756	362.01
427.811	365.65
427.866	367.64
427.921	366.53
427.976	374.37
428.031	358
428.086	357.31
428.141	366.49
428.196	372.12
428.251	367.41
428.306	371.04
428.361	371.73
428.416	364.19
428.471	368.63
428.526	367.49
428.581	365.88
428.636	363.28
428.691	361.06
428.745	368.44
428.8	367.1
428.855	367.98
428.91	362.4
428.965	370.05
429.02	367.98
429.074	376.4
429.129	371.2
429.184	373.88
429.239	364.31
429.293	361.82
429.348	370.28
429.403	375.75
429.457	375.94
429.512	369.63
429.567	361.94
429.621	362.32
429.676	377.05
429.731	368.02
429.785	366.45
429.84	365.92
429.895	370.43
429.949	386.24
430.004	364.23
430.058	371.92
430.113	356.2
430.167	370.24
430.222	364.85
430.276	367.98
430.331	370.97
430.385	373.49
430.44	367.45
430.494	372.92
430.549	361.02
430.603	374.37
430.657	363.58
430.712	368.17
430.766	357.46
430.821	373.49
430.875	356.73
430.929	374.3
430.984	358.88
431.038	377.82
431.092	361.67
431.147	360.44
431.201	369.97
431.255	365.88
431.309	358.07
431.364	365.73
431.418	362.59
431.472	363.16
431.526	368.17
431.581	381.3
431.635	357.12
431.689	370.09
431.743	366.3
431.797	367.56
431.851	367.45
431.906	359.3
431.96	361.02
432.014	361.13
432.068	359.68
432.122	363.31
432.176	367.6
432.23	372.38
432.284	378.93
432.338	362.89
432.392	361.98
432.446	360.33
432.5	368.6
432.554	362.05
432.608	364.62
432.662	379.04
432.716	366.99
432.77	362.36
432.824	356.58
432.878	357.5
432.931	355.13
432.985	369.09
433.039	355.78
433.093	363.35
433.147	370.7
433.201	365.19
433.254	363.01
433.308	365.3
433.362	354.25
433.416	394.77
433.47	367.75
433.523	368.25
433.577	375.02
433.631	362.24
433.684	368.1
433.738	361.1
433.792	370.05
433.846	366.72
433.899	362.43
433.953	366.72
434.006	382.87
434.06	369.36
434.114	365.27
434.167	365.27
434.221	365.27
