Data from FLMS155811_13-12-19-477.txt Node
Date: Wed Mar 25 13:12:19 MDT 2020
User: ECEn Student
Spectrometer: FLMS15581
Trigger mode: 0
Integration Time (sec): 1.000000E-1
Scans to average: 1
Electric dark correction enabled: true
Nonlinearity correction enabled: false
Boxcar width: 0
XAxis mode: Wavelengths
Number of Pixels in Spectrum: 2048
>>>>>Begin Spectral Data<<<<<
298.026	-43.91
298.106	-43.91
298.185	-43.91
298.265	24.97
298.344	-62.28
298.424	-69.17
298.503	-73.76
298.583	-62.28
298.662	-121.98
298.741	-18.66
298.821	-14.06
298.9	-7.18
298.98	-46.21
299.059	43.34
299.138	-2.58
299.217	4.31
299.297	27.27
299.376	34.15
299.455	80.07
299.535	84.67
299.614	142.07
299.693	153.55
299.772	80.07
299.852	181.1
299.931	178.8
300.01	210.95
300.089	194.87
300.168	263.75
300.247	249.98
300.327	316.56
300.406	272.94
300.485	279.83
300.564	249.98
300.643	348.71
300.722	307.38
300.801	337.23
300.88	330.34
300.959	348.71
301.038	360.19
301.117	362.48
301.196	309.67
301.275	355.59
301.354	419.88
301.433	445.14
301.512	302.79
301.591	318.86
301.67	429.07
301.749	332.63
301.828	376.26
301.907	410.7
301.985	364.78
302.064	360.19
302.143	325.75
302.222	433.66
302.301	332.63
302.38	360.19
302.458	325.75
302.537	403.81
302.616	399.22
302.695	348.71
302.773	339.52
302.852	367.07
302.931	369.37
303.01	376.26
303.088	337.23
303.167	328.04
303.246	341.82
303.324	316.56
303.403	355.59
303.481	337.23
303.56	314.27
303.639	344.11
303.717	357.89
303.796	373.96
303.874	346.41
303.953	321.15
304.032	243.09
304.11	341.82
304.189	314.27
304.267	328.04
304.346	360.19
304.424	339.52
304.502	344.11
304.581	348.71
304.659	254.57
304.738	380.85
304.816	323.45
304.895	330.34
304.973	392.33
305.051	364.78
305.13	334.93
305.208	357.89
305.286	286.71
305.365	318.86
305.443	396.92
305.521	357.89
305.6	282.12
305.678	344.11
305.756	355.59
305.834	376.26
305.913	300.49
305.991	364.78
306.069	362.48
306.147	272.94
306.225	364.78
306.304	364.78
306.382	341.82
306.46	362.48
306.538	355.59
306.616	351
306.694	337.23
306.772	311.97
306.85	321.15
306.929	387.74
307.007	385.44
307.085	392.33
307.163	373.96
307.241	337.23
307.319	417.59
307.397	378.55
307.475	351
307.553	351
307.631	355.59
307.709	435.95
307.786	394.63
307.864	362.48
307.942	371.67
308.02	355.59
308.098	357.89
308.176	401.51
308.254	390.03
308.332	334.93
308.409	373.96
308.487	323.45
308.565	364.78
308.643	367.07
308.721	334.93
308.798	341.82
308.876	367.07
308.954	351
309.032	392.33
309.109	348.71
309.187	385.44
309.265	424.47
309.342	357.89
309.42	369.37
309.498	309.67
309.575	346.41
309.653	298.19
309.731	351
309.808	385.44
309.886	419.88
309.963	309.67
310.041	412.99
310.119	371.67
310.196	341.82
310.274	419.88
310.351	314.27
310.429	314.27
310.506	348.71
310.584	390.03
310.661	396.92
310.738	422.18
310.816	380.85
310.893	355.59
310.971	376.26
311.048	399.22
311.126	383.15
311.203	330.34
311.28	378.55
311.358	378.55
311.435	367.07
311.512	406.11
311.59	364.78
311.667	440.55
311.744	371.67
311.821	346.41
311.899	431.36
311.976	360.19
312.053	424.47
312.13	353.3
312.208	396.92
312.285	378.55
312.362	353.3
312.439	325.75
312.516	380.85
312.593	403.81
312.671	353.3
312.748	371.67
312.825	380.85
312.902	353.3
312.979	406.11
313.056	357.89
313.133	371.67
313.21	399.22
313.287	394.63
313.364	362.48
313.441	369.37
313.518	344.11
313.595	408.4
313.672	369.37
313.749	376.26
313.826	394.63
313.903	362.48
313.98	426.77
314.057	399.22
314.134	360.19
314.211	470.39
314.287	311.97
314.364	334.93
314.441	371.67
314.518	367.07
314.595	417.59
314.672	396.92
314.748	422.18
314.825	334.93
314.902	387.74
314.979	399.22
315.055	435.95
315.132	314.27
315.209	376.26
315.286	325.75
315.362	390.03
315.439	367.07
315.516	376.26
315.592	387.74
315.669	376.26
315.746	394.63
315.822	314.27
315.899	369.37
315.975	394.63
316.052	360.19
316.128	387.74
316.205	408.4
316.282	371.67
316.358	323.45
316.435	408.4
316.511	362.48
316.588	426.77
316.664	394.63
316.741	353.3
316.817	334.93
316.893	357.89
316.97	435.95
317.046	378.55
317.123	316.56
317.199	376.26
317.275	452.03
317.352	371.67
317.428	353.3
317.504	445.14
317.581	383.15
317.657	435.95
317.733	371.67
317.81	417.59
317.886	440.55
317.962	332.63
318.038	380.85
318.115	399.22
318.191	399.22
318.267	424.47
318.343	394.63
318.419	380.85
318.496	353.3
318.572	371.67
318.648	380.85
318.724	396.92
318.8	412.99
318.876	376.26
318.952	390.03
319.028	344.11
319.105	357.89
319.181	415.29
319.257	419.88
319.333	426.77
319.409	445.14
319.485	373.96
319.561	385.44
319.637	323.45
319.713	362.48
319.789	394.63
319.865	323.45
319.94	396.92
320.016	367.07
320.092	390.03
320.168	387.74
320.244	367.07
320.32	362.48
320.396	415.29
320.472	458.91
320.547	376.26
320.623	387.74
320.699	412.99
320.775	371.67
320.851	424.47
320.926	401.51
321.002	385.44
321.078	406.11
321.154	454.32
321.229	403.81
321.305	387.74
321.381	355.59
321.456	435.95
321.532	371.67
321.608	387.74
321.683	417.59
321.759	360.19
321.835	390.03
321.91	334.93
321.986	435.95
322.061	325.75
322.137	454.32
322.212	394.63
322.288	426.77
322.364	481.87
322.439	376.26
322.515	371.67
322.59	396.92
322.666	357.89
322.741	353.3
322.816	410.7
322.892	371.67
322.967	435.95
323.043	346.41
323.118	440.55
323.193	360.19
323.269	412.99
323.344	362.48
323.42	433.66
323.495	369.37
323.57	362.48
323.646	387.74
323.721	371.67
323.796	426.77
323.871	440.55
323.947	390.03
324.022	371.67
324.097	472.69
324.172	417.59
324.248	369.37
324.323	371.67
324.398	371.67
324.473	367.07
324.548	339.52
324.623	362.48
324.699	399.22
324.774	367.07
324.849	387.74
324.924	433.66
324.999	440.55
325.074	408.4
325.149	364.78
325.224	344.11
325.299	454.32
325.374	406.11
325.449	408.4
325.524	419.88
325.599	390.03
325.674	408.4
325.749	385.44
325.824	362.48
325.899	378.55
325.974	390.03
326.049	362.48
326.124	410.7
326.199	431.36
326.273	408.4
326.348	376.26
326.423	417.59
326.498	360.19
326.573	424.47
326.648	390.03
326.722	415.29
326.797	422.18
326.872	412.99
326.947	399.22
327.021	357.89
327.096	399.22
327.171	438.25
327.245	406.11
327.32	463.51
327.395	415.29
327.47	435.95
327.544	341.82
327.619	403.81
327.693	417.59
327.768	385.44
327.843	367.07
327.917	390.03
327.992	396.92
328.066	376.26
328.141	387.74
328.215	337.23
328.29	371.67
328.364	390.03
328.439	355.59
328.513	357.89
328.588	369.37
328.662	353.3
328.737	367.07
328.811	429.07
328.886	410.7
328.96	289.01
329.035	412.99
329.109	341.82
329.183	452.03
329.258	410.7
329.332	399.22
329.406	383.15
329.481	399.22
329.555	463.51
329.629	328.04
329.704	371.67
329.778	360.19
329.852	348.71
329.926	468.1
330.001	378.55
330.075	417.59
330.149	422.18
330.223	415.29
330.297	383.15
330.372	408.4
330.446	321.15
330.52	419.88
330.594	357.89
330.668	461.21
330.742	376.26
330.816	351
330.89	406.11
330.964	406.11
331.038	422.18
331.113	392.33
331.187	445.14
331.261	408.4
331.335	353.3
331.409	351
331.483	378.55
331.557	357.89
331.63	399.22
331.704	385.44
331.778	390.03
331.852	380.85
331.926	410.7
332	412.99
332.074	328.04
332.148	380.85
332.222	394.63
332.295	401.51
332.369	433.66
332.443	383.15
332.517	334.93
332.591	401.51
332.665	447.43
332.738	339.52
332.812	360.19
332.886	339.52
332.959	419.88
333.033	396.92
333.107	452.03
333.181	422.18
333.254	406.11
333.328	465.8
333.402	394.63
333.475	399.22
333.549	433.66
333.622	440.55
333.696	438.25
333.77	410.7
333.843	408.4
333.917	399.22
333.99	351
334.064	424.47
334.137	438.25
334.211	357.89
334.284	371.67
334.358	412.99
334.431	403.81
334.505	369.37
334.578	378.55
334.652	334.93
334.725	493.36
334.799	442.84
334.872	445.14
334.945	394.63
335.019	371.67
335.092	424.47
335.165	376.26
335.239	390.03
335.312	346.41
335.385	394.63
335.459	422.18
335.532	410.7
335.605	422.18
335.678	360.19
335.752	373.96
335.825	337.23
335.898	424.47
335.971	442.84
336.045	454.32
336.118	396.92
336.191	410.7
336.264	339.52
336.337	449.73
336.41	399.22
336.483	463.51
336.557	387.74
336.63	351
336.703	351
336.776	399.22
336.849	399.22
336.922	394.63
336.995	445.14
337.068	440.55
337.141	408.4
337.214	435.95
337.287	401.51
337.36	454.32
337.433	415.29
337.506	435.95
337.579	348.71
337.652	392.33
337.725	435.95
337.797	394.63
337.87	376.26
337.943	401.51
338.016	429.07
338.089	412.99
338.162	419.88
338.235	461.21
338.307	442.84
338.38	396.92
338.453	479.58
338.526	383.15
338.598	435.95
338.671	440.55
338.744	394.63
338.817	362.48
338.889	424.47
338.962	362.48
339.035	442.84
339.107	300.49
339.18	367.07
339.253	403.81
339.325	390.03
339.398	472.69
339.47	396.92
339.543	346.41
339.616	396.92
339.688	454.32
339.761	417.59
339.833	440.55
339.906	364.78
339.978	477.28
340.051	445.14
340.123	367.07
340.196	378.55
340.268	392.33
340.341	387.74
340.413	426.77
340.485	392.33
340.558	403.81
340.63	378.55
340.703	431.36
340.775	468.1
340.847	465.8
340.92	401.51
340.992	440.55
341.064	456.62
341.137	410.7
341.209	369.37
341.281	424.47
341.354	410.7
341.426	429.07
341.498	364.78
341.57	330.34
341.643	403.81
341.715	470.39
341.787	401.51
341.859	383.15
341.931	373.96
342.003	415.29
342.076	380.85
342.148	401.51
342.22	452.03
342.292	387.74
342.364	472.69
342.436	403.81
342.508	488.76
342.58	435.95
342.652	435.95
342.724	491.06
342.796	373.96
342.868	431.36
342.94	445.14
343.012	403.81
343.084	403.81
343.156	424.47
343.228	424.47
343.3	468.1
343.372	378.55
343.444	415.29
343.516	440.55
343.588	376.26
343.66	484.17
343.731	362.48
343.803	408.4
343.875	424.47
343.947	419.88
344.019	392.33
344.09	463.51
344.162	399.22
344.234	422.18
344.306	387.74
344.377	346.41
344.449	422.18
344.521	527.8
344.593	461.21
344.664	417.59
344.736	415.29
344.808	438.25
344.879	408.4
344.951	399.22
345.023	426.77
345.094	399.22
345.166	474.99
345.237	431.36
345.309	458.91
345.38	477.28
345.452	431.36
345.524	429.07
345.595	419.88
345.667	406.11
345.738	484.17
345.81	433.66
345.881	452.03
345.953	419.88
346.024	380.85
346.095	378.55
346.167	449.73
346.238	422.18
346.31	479.58
346.381	449.73
346.452	408.4
346.524	488.76
346.595	392.33
346.666	445.14
346.738	484.17
346.809	422.18
346.88	458.91
346.952	396.92
347.023	408.4
347.094	415.29
347.165	442.84
347.237	456.62
347.308	390.03
347.379	486.47
347.45	380.85
347.521	426.77
347.593	369.37
347.664	463.51
347.735	479.58
347.806	431.36
347.877	445.14
347.948	463.51
348.019	449.73
348.09	426.77
348.161	461.21
348.233	445.14
348.304	422.18
348.375	452.03
348.446	468.1
348.517	504.84
348.588	458.91
348.659	438.25
348.73	362.48
348.801	511.72
348.871	424.47
348.942	447.43
349.013	447.43
349.084	445.14
349.155	429.07
349.226	445.14
349.297	415.29
349.368	364.78
349.439	408.4
349.509	452.03
349.58	426.77
349.651	481.87
349.722	452.03
349.793	385.44
349.863	449.73
349.934	435.95
350.005	477.28
350.076	527.8
350.146	502.54
350.217	452.03
350.288	403.81
350.358	479.58
350.429	514.02
350.5	456.62
350.57	371.67
350.641	406.11
350.711	500.24
350.782	438.25
350.853	442.84
350.923	435.95
350.994	463.51
351.064	454.32
351.135	447.43
351.205	491.06
351.276	426.77
351.346	514.02
351.417	440.55
351.487	415.29
351.558	426.77
351.628	394.63
351.699	429.07
351.769	456.62
351.84	449.73
351.91	477.28
351.98	419.88
352.051	396.92
352.121	424.47
352.191	474.99
352.262	465.8
352.332	419.88
352.402	491.06
352.473	417.59
352.543	474.99
352.613	461.21
352.683	456.62
352.754	454.32
352.824	454.32
352.894	442.84
352.964	504.84
353.035	479.58
353.105	523.2
353.175	518.61
353.245	449.73
353.315	557.64
353.385	536.98
353.455	516.32
353.526	454.32
353.596	465.8
353.666	474.99
353.736	454.32
353.806	495.65
353.876	605.86
353.946	484.17
354.016	520.91
354.086	546.16
354.156	525.5
354.226	502.54
354.296	530.09
354.366	516.32
354.436	550.76
354.506	559.94
354.576	553.05
354.645	576.01
354.715	569.12
354.785	585.2
354.855	562.24
354.925	536.98
354.995	631.12
355.065	677.04
355.134	594.38
355.204	559.94
355.274	564.53
355.344	598.97
355.414	644.89
355.483	722.96
355.553	608.16
355.623	679.33
355.693	615.04
355.762	674.74
355.832	750.51
355.902	711.48
355.971	663.26
356.041	709.18
356.111	766.58
356.18	755.1
356.25	702.29
356.319	752.8
356.389	771.17
356.459	789.54
356.528	784.95
356.598	844.64
356.667	915.82
356.737	892.86
356.806	888.27
356.876	982.41
356.945	934.19
357.015	989.29
357.084	1014.55
357.154	1035.21
357.223	1021.44
357.292	1104.09
357.362	1131.65
357.431	1138.53
357.501	1168.38
357.57	1166.09
357.639	1234.97
357.709	1262.52
357.778	1287.77
357.847	1294.66
357.917	1347.47
357.986	1469.16
358.055	1441.61
358.124	1574.78
358.194	1618.4
358.263	1664.32
358.332	1673.5
358.401	1737.79
358.471	1827.34
358.54	1850.3
358.609	1845.7
358.678	1822.74
358.747	2001.83
358.816	1967.39
358.886	2029.39
358.955	2210.77
359.024	2190.11
359.093	2210.77
359.162	2240.62
359.231	2353.12
359.3	2348.53
359.369	2479.4
359.438	2651.6
359.507	2660.79
359.576	2667.68
359.645	2789.36
359.714	2853.65
359.783	2862.84
359.852	2968.45
359.921	3071.77
359.99	3119.99
360.059	3299.08
360.128	3404.7
360.197	3480.46
360.266	3425.36
360.334	3634.3
360.403	3857.01
360.472	3795.02
360.541	3932.78
360.61	4042.99
360.679	4171.56
360.747	4382.8
360.816	4431.01
360.885	4651.43
360.954	4729.49
361.022	5138.18
361.091	5399.93
361.16	5303.5
361.228	5634.12
361.297	5866.02
361.366	6153.02
361.434	6242.56
361.503	6506.6
361.572	6479.05
361.64	6609.92
361.709	7009.43
361.778	7188.52
361.846	7149.49
361.915	7682.16
361.983	7739.56
362.052	7916.35
362.12	8070.19
362.189	8352.6
362.257	8600.56
362.326	8745.21
362.394	8993.18
362.463	9438.61
362.531	9629.18
362.6	9863.37
362.668	10092.97
362.737	10464.92
362.805	10885.09
362.873	11259.34
362.942	11817.27
363.01	12111.16
363.079	12627.77
363.147	13109.93
363.215	13741.33
363.284	13966.34
363.352	14710.25
363.42	15100.57
363.488	15580.43
363.557	16163.62
363.625	16896.05
363.693	17290.96
363.761	17816.75
363.83	18441.26
363.898	19233.38
363.966	19991.07
364.034	20179.34
364.102	21111.52
364.171	21896.76
364.239	22486.83
364.307	23416.71
364.375	24314.45
364.443	24674.93
364.511	25531.34
364.579	25765.53
364.647	27099.51
364.715	27533.46
364.783	28986.83
364.851	29652.68
364.919	31009.62
364.987	31360.91
365.055	32219.61
365.123	32860.2
365.191	33886.52
365.259	34352.61
365.327	34993.19
365.395	36460.34
365.463	36802.45
365.531	37560.13
365.599	38104.29
365.667	38563.49
365.735	39484.19
365.802	39954.87
365.87	40375.04
365.938	40563.31
366.006	41513.86
366.074	42085.57
366.142	42719.27
366.209	43270.31
366.277	43699.66
366.345	44161.16
366.413	45148.44
366.48	45561.73
366.548	45975.01
366.616	46581.15
366.683	47348.02
366.751	47694.72
366.819	47901.36
366.886	48411.07
366.954	48328.42
367.022	48932.27
367.089	49175.65
367.157	49664.7
367.224	49556.78
367.292	50741.52
367.36	51033.12
367.427	51209.91
367.495	51515.28
367.562	52121.43
367.63	52263.78
367.697	52663.28
367.765	52801.04
367.832	53161.52
367.9	53221.21
367.967	53806.7
368.034	53781.44
368.102	54034
368.169	53955.94
368.237	54458.76
368.304	54481.72
368.371	54683.77
368.439	54814.64
368.506	55051.13
368.573	55142.97
368.641	55397.83
368.708	55411.61
368.775	55627.43
368.843	55650.39
368.91	55861.62
368.977	55827.18
369.044	55967.24
369.112	55923.62
369.179	56008.57
369.246	55705.5
369.313	56084.34
369.38	56130.26
369.448	56316.23
369.515	56316.23
369.582	56270.31
369.649	56557.32
369.716	56235.87
369.783	56364.45
369.85	56635.38
369.917	56451.7
369.984	56541.24
370.052	56780.03
370.119	56555.02
370.186	56612.42
370.253	56451.7
370.32	56049.9
370.387	56155.51
370.454	56171.59
370.521	55700.9
370.587	55657.28
370.654	55542.48
370.721	55691.72
370.788	55462.12
370.855	55165.93
370.922	55324.36
370.989	54977.66
371.056	54830.72
371.123	54725.1
371.189	54550.6
371.256	54293.45
371.323	54433.51
371.39	54075.33
371.457	53838.84
371.523	53779.14
371.59	53710.26
371.657	53480.66
371.724	52906.66
371.79	52886
371.857	52947.99
371.924	52679.36
371.991	52307.4
372.057	52020.4
372.124	52146.68
372.191	51664.52
372.257	51639.26
372.324	51315.53
372.39	50929.8
372.457	50858.62
372.524	50401.71
372.59	50753
372.657	50291.51
372.723	50162.93
372.79	50156.04
372.856	49641.74
372.923	49602.7
372.989	49540.71
373.056	49104.47
373.122	48551.13
373.189	48946.04
373.255	49274.37
373.322	48064.38
373.388	47814.11
373.454	48257.24
373.521	47641.91
373.587	47504.15
373.654	46999.03
373.72	46627.07
373.786	46718.91
373.853	46319.41
373.919	46282.67
373.985	45626.01
374.052	45582.39
374.118	45251.76
374.184	44831.6
374.25	44335.66
374.317	44108.35
374.383	44445.87
374.449	43591.75
374.515	43348.37
374.581	42916.72
374.648	42643.5
374.714	42742.23
374.78	42315.17
374.846	42147.56
374.912	41872.04
374.978	41516.16
375.044	41633.25
375.11	41213.08
375.177	40813.58
375.243	40464.58
375.309	40414.07
375.375	40023.75
375.441	40037.53
375.507	39603.58
375.573	39419.9
375.639	39188
375.705	38574.97
375.771	38003.26
375.837	37732.33
375.903	37594.57
375.968	37087.15
376.034	36579.74
376.1	36747.35
376.166	35969
376.232	35955.22
376.298	35895.53
376.364	35576.38
376.43	35169.99
376.495	34719.97
376.561	34533.99
376.627	34605.17
376.693	34308.98
376.759	33875.04
376.824	33966.88
376.89	33512.27
376.956	33165.57
377.022	33050.77
377.087	32713.26
377.153	32433.14
377.219	32499.73
377.284	32153.03
377.35	32467.58
377.416	31921.13
377.481	31556.07
377.547	31080.79
377.613	30814.46
377.678	30330
377.744	30245.05
377.809	30332.29
377.875	30206.01
377.94	30127.95
378.006	29544.76
378.071	29590.68
378.137	29276.13
378.202	29207.25
378.268	28745.75
378.333	28591.92
378.399	28187.82
378.464	28091.39
378.53	28144.2
378.595	27728.62
378.661	27822.76
378.726	27859.49
378.791	27159.21
378.857	27042.11
378.922	27060.48
378.987	26674.75
379.053	26670.16
379.118	26468.11
379.183	25894.11
379.249	26119.12
379.314	25503.79
379.379	25092.8
379.444	25120.35
379.51	24948.15
379.575	24491.25
379.64	24151.44
379.705	24112.41
379.771	23905.76
379.836	23331.76
379.901	23311.1
379.966	22980.47
380.031	22991.95
380.096	22525.86
380.161	22551.12
380.227	22257.23
380.292	22349.07
380.357	21595.98
380.422	21446.74
380.487	21325.05
380.552	20902.58
380.617	21237.8
380.682	20686.76
380.747	20539.81
380.812	20105.87
380.877	20165.56
380.942	20011.73
381.007	19580.08
381.072	19717.84
381.137	19226.5
381.202	19196.65
381.266	18723.67
381.331	18498.66
381.396	18714.49
381.461	18418.3
381.526	18064.72
381.591	17589.44
381.656	17812.15
381.72	17676.69
381.785	17114.17
381.85	17148.61
381.915	17045.29
381.979	16668.74
382.044	16395.52
382.109	16356.48
382.174	16200.36
382.238	15945.5
382.303	16069.48
382.368	16108.52
382.432	15775.59
382.497	15587.32
382.562	15456.45
382.626	15334.76
382.691	15550.59
382.756	15109.75
382.82	15144.19
382.885	14792.9
382.949	14875.56
383.014	14804.38
383.078	14515.09
383.143	14457.69
383.208	14228.08
383.272	13980.12
383.337	14127.06
383.401	13913.53
383.465	13835.47
383.53	13403.82
383.594	13541.58
383.659	13229.32
383.723	13328.05
383.788	13192.58
383.852	12976.76
383.916	13114.52
383.981	12825.22
384.045	12788.49
384.109	12825.22
384.174	12542.81
384.238	12336.17
384.302	12333.88
384.367	12269.59
384.431	11870.08
384.495	12028.51
384.56	11792.02
384.624	11651.96
384.688	11886.15
384.752	11686.4
384.816	11403.99
384.881	11491.24
384.945	11261.64
385.009	11461.39
385.073	11227.2
385.137	10940.2
385.201	10997.6
385.265	10524.62
385.33	10549.88
385.394	10621.05
385.458	10689.93
385.522	10625.65
385.586	10559.06
385.65	10462.63
385.714	10083.79
385.778	10278.95
385.842	10306.5
385.906	10159.56
385.97	9867.96
386.034	9796.79
386.098	9743.98
386.162	9753.16
386.226	9574.07
386.29	9491.42
386.354	9268.7
386.417	9241.15
386.481	9103.39
386.545	8931.19
386.609	9018.44
386.673	8706.18
386.737	8779.65
386.8	8655.67
386.864	8499.54
386.928	8598.27
386.992	8437.55
387.056	8336.52
387.119	8260.76
387.183	8256.16
387.247	8012.79
387.31	8079.37
387.374	8083.96
387.438	8100.03
387.502	7693.64
387.565	7833.7
387.629	7675.27
387.692	7640.83
387.756	7482.41
387.82	7661.5
387.883	7560.47
387.947	7128.82
388.01	7105.86
388.074	7096.68
388.138	7053.05
388.201	6952.03
388.265	6814.27
388.328	6738.5
388.392	6536.45
388.455	6637.48
388.519	6513.49
388.582	6440.02
388.645	6343.59
388.709	6297.67
388.772	6187.46
388.836	6208.12
388.899	6120.87
388.962	6113.99
389.026	6127.76
389.089	5833.87
389.153	5907.35
389.216	5849.95
389.279	5581.31
389.343	5758.1
389.406	5748.92
389.469	5399.93
389.532	5526.21
389.596	5365.49
389.659	5374.67
389.722	5337.94
389.785	5264.46
389.848	5190.99
389.912	5179.51
389.975	5106.04
390.038	5101.45
390.101	4830.52
390.164	4940.73
390.227	4933.84
390.291	4947.61
390.354	4761.64
390.417	4672.09
390.48	4676.68
390.543	4711.12
390.606	4681.28
390.669	4536.63
390.732	4616.99
390.795	4568.77
390.858	4493
390.921	4566.48
390.984	4424.12
391.047	4323.1
391.11	4316.21
391.173	4385.09
391.236	4256.51
391.299	4277.18
391.362	4075.13
391.424	4189.93
391.487	4072.83
391.55	4045.28
391.613	4015.43
391.676	4052.17
391.739	4059.06
391.802	4003.95
391.864	3930.48
391.927	3948.85
391.99	3944.26
392.053	3790.42
392.115	3537.86
392.178	3597.56
392.241	3634.3
392.304	3590.67
392.366	3680.22
392.429	3572.3
392.492	3478.17
392.554	3478.17
392.617	3551.64
392.68	3409.29
392.742	3358.77
392.805	3363.37
392.867	3312.85
392.93	3266.93
392.992	3200.35
393.055	3299.08
393.118	3131.47
393.18	3156.73
393.243	3175.09
393.305	3071.77
393.368	3002.89
393.43	2996.01
393.493	2954.68
393.555	3018.97
393.618	2943.2
393.68	2890.39
393.742	2869.72
393.805	2803.14
393.867	2729.67
393.93	2878.91
393.992	2665.38
394.054	2718.19
394.117	2750.33
394.179	2736.56
394.241	2626.35
394.304	2585.02
394.366	2647.01
394.428	2451.85
394.49	2472.52
394.553	2440.37
394.615	2562.06
394.677	2470.22
394.739	2573.54
394.802	2534.51
394.864	2440.37
394.926	2426.6
394.988	2380.67
395.05	2382.97
395.112	2339.35
395.174	2362.31
395.237	2369.19
395.299	2236.03
395.361	2318.68
395.423	2376.08
395.485	2116.63
395.547	2128.11
395.609	2263.58
395.671	2226.84
395.733	2100.56
395.795	2061.53
395.857	2022.5
395.919	2075.31
395.981	2079.9
396.043	2045.46
396.105	1946.73
396.167	1951.32
396.229	1967.39
396.291	1942.14
396.352	1990.35
396.414	1953.62
396.476	1873.26
396.538	1804.38
396.6	1772.23
396.662	1751.57
396.724	1756.16
396.785	1774.53
396.847	1740.09
396.909	1760.75
396.971	1825.04
397.032	1639.06
397.094	1767.64
397.156	1620.7
397.218	1673.5
397.279	1701.06
397.341	1547.22
397.403	1625.29
397.464	1583.96
397.526	1574.78
397.588	1625.29
397.649	1515.08
397.711	1586.26
397.772	1561
397.834	1505.9
397.896	1466.86
397.957	1443.9
398.019	1499.01
398.08	1425.53
398.142	1512.78
398.203	1466.86
398.265	1450.79
398.326	1404.87
398.388	1427.83
398.449	1430.13
398.511	1365.84
398.572	1333.69
398.633	1370.43
398.695	1280.89
398.756	1319.92
398.818	1306.14
398.879	1354.36
398.94	1244.15
399.002	1276.29
399.063	1255.63
399.124	1271.7
399.186	1290.07
399.247	1280.89
399.308	1246.45
399.369	1228.08
399.431	1239.56
399.492	1257.93
399.553	1138.53
399.614	1172.97
399.676	1159.2
399.737	1218.89
399.798	1122.46
399.859	1131.65
399.92	1168.38
399.981	1166.09
400.042	1154.61
400.104	1202.82
400.165	1078.84
400.226	1106.39
400.287	1044.4
400.348	1081.13
400.409	1108.69
400.47	1133.94
400.531	1065.06
400.592	1053.58
400.653	1108.69
400.714	1081.13
400.775	1046.69
400.836	1039.81
400.897	1048.99
400.958	1039.81
401.019	906.64
401.08	1030.62
401.141	1028.33
401.201	913.52
401.262	964.04
401.323	998.48
401.384	1037.51
401.445	1016.85
401.506	1028.33
401.567	915.82
401.627	911.23
401.688	952.56
401.749	980.11
401.81	925
401.87	1012.25
401.931	895.16
401.992	943.37
402.053	975.52
402.113	929.6
402.174	872.2
402.235	954.85
402.295	998.48
402.356	982.41
402.417	941.08
402.477	934.19
402.538	860.72
402.598	925
402.659	920.41
402.719	863.01
402.78	920.41
402.841	892.86
402.901	911.23
402.962	853.83
403.022	920.41
403.083	840.05
403.143	789.54
403.204	954.85
403.264	833.16
403.324	904.34
403.385	775.76
403.445	791.84
403.506	837.76
403.566	860.72
403.627	817.09
403.687	775.76
403.747	752.8
403.808	784.95
403.868	791.84
403.928	787.24
403.989	853.83
404.049	846.94
404.109	789.54
404.169	803.32
404.23	778.06
404.29	667.85
404.35	757.4
404.41	718.36
404.47	766.58
404.531	677.04
404.591	796.43
404.651	716.07
404.711	734.44
404.771	716.07
404.831	681.63
404.892	750.51
404.952	677.04
405.012	672.44
405.072	745.92
405.132	651.78
405.192	700
405.252	654.08
405.312	725.25
405.372	693.11
405.432	690.81
405.492	716.07
405.552	651.78
405.612	644.89
405.672	674.74
405.732	716.07
405.792	649.48
405.852	741.32
405.912	725.25
405.971	660.96
406.031	663.26
406.091	672.44
406.151	667.85
406.211	690.81
406.271	635.71
406.33	711.48
406.39	642.6
406.45	644.89
406.51	674.74
406.57	665.56
406.629	702.29
406.689	626.52
406.749	628.82
406.808	619.64
406.868	670.15
406.928	656.37
406.988	642.6
407.047	647.19
407.107	596.68
407.166	695.4
407.226	674.74
407.286	663.26
407.345	651.78
407.405	621.93
407.464	598.97
407.524	656.37
407.584	638
407.643	658.67
407.703	640.3
407.762	638
407.822	619.64
407.881	679.33
407.941	617.34
408	635.71
408.059	592.08
408.119	592.08
408.178	631.12
408.238	610.45
408.297	615.04
408.356	679.33
408.416	587.49
408.475	589.79
408.535	546.16
408.594	548.46
408.653	580.6
408.712	585.2
408.772	638
408.831	541.57
408.89	603.56
408.95	596.68
409.009	621.93
409.068	592.08
409.127	585.2
409.186	562.24
409.246	562.24
409.305	589.79
409.364	532.39
409.423	608.16
409.482	578.31
409.541	564.53
409.6	615.04
409.66	580.6
409.719	587.49
409.778	576.01
409.837	541.57
409.896	516.32
409.955	527.8
410.014	621.93
410.073	585.2
410.132	585.2
410.191	546.16
410.25	569.12
410.309	626.52
410.368	594.38
410.427	525.5
410.486	559.94
410.545	497.95
410.603	550.76
410.662	603.56
410.721	518.61
410.78	520.91
410.839	532.39
410.898	520.91
410.957	511.72
411.015	541.57
411.074	589.79
411.133	566.83
411.192	539.28
411.25	566.83
411.309	479.58
411.368	550.76
411.427	493.36
411.485	465.8
411.544	543.87
411.603	431.36
411.661	465.8
411.72	520.91
411.779	530.09
411.837	468.1
411.896	493.36
411.955	525.5
412.013	534.68
412.072	543.87
412.13	415.29
412.189	548.46
412.247	509.43
412.306	527.8
412.364	559.94
412.423	435.95
412.481	452.03
412.54	523.2
412.598	514.02
412.657	525.5
412.715	463.51
412.774	449.73
412.832	557.64
412.891	488.76
412.949	500.24
413.007	440.55
413.066	479.58
413.124	479.58
413.182	399.22
413.241	440.55
413.299	465.8
413.357	468.1
413.416	509.43
413.474	523.2
413.532	470.39
413.59	470.39
413.649	479.58
413.707	454.32
413.765	396.92
413.823	307.38
413.881	468.1
413.94	463.51
413.998	550.76
414.056	518.61
414.114	422.18
414.172	415.29
414.23	477.28
414.288	415.29
414.347	491.06
414.405	452.03
414.463	468.1
414.521	401.51
414.579	449.73
414.637	440.55
414.695	477.28
414.753	470.39
414.811	502.54
414.869	442.84
414.927	465.8
414.985	461.21
415.043	481.87
415.101	442.84
415.158	458.91
415.216	507.13
415.274	431.36
415.332	458.91
415.39	458.91
415.448	447.43
415.506	468.1
415.563	429.07
415.621	442.84
415.679	465.8
415.737	429.07
415.795	511.72
415.852	447.43
415.91	445.14
415.968	369.37
416.026	484.17
416.083	442.84
416.141	456.62
416.199	440.55
416.256	440.55
416.314	497.95
416.372	449.73
416.429	502.54
416.487	470.39
416.544	364.78
416.602	445.14
416.66	419.88
416.717	433.66
416.775	445.14
416.832	433.66
416.89	468.1
416.947	461.21
417.005	435.95
417.062	458.91
417.12	445.14
417.177	438.25
417.235	348.71
417.292	481.87
417.35	470.39
417.407	412.99
417.464	424.47
417.522	429.07
417.579	495.65
417.637	491.06
417.694	396.92
417.751	417.59
417.809	442.84
417.866	484.17
417.923	431.36
417.981	495.65
418.038	380.85
418.095	422.18
418.152	429.07
418.21	442.84
418.267	452.03
418.324	390.03
418.381	470.39
418.438	410.7
418.496	417.59
418.553	390.03
418.61	403.81
418.667	408.4
418.724	516.32
418.781	468.1
418.838	481.87
418.895	452.03
418.952	403.81
419.01	422.18
419.067	424.47
419.124	422.18
419.181	449.73
419.238	438.25
419.295	447.43
419.352	445.14
419.409	433.66
419.466	415.29
419.523	429.07
419.579	438.25
419.636	408.4
419.693	422.18
419.75	435.95
419.807	442.84
419.864	369.37
419.921	417.59
419.978	406.11
420.034	454.32
420.091	380.85
420.148	454.32
420.205	380.85
420.262	403.81
420.318	334.93
420.375	426.77
420.432	426.77
420.489	422.18
420.545	360.19
420.602	422.18
420.659	412.99
420.715	422.18
420.772	410.7
420.829	367.07
420.885	406.11
420.942	415.29
420.999	429.07
421.055	433.66
421.112	410.7
421.168	417.59
421.225	445.14
421.282	396.92
421.338	362.48
421.395	452.03
421.451	417.59
421.508	477.28
421.564	399.22
421.621	426.77
421.677	431.36
421.734	385.44
421.79	415.29
421.846	431.36
421.903	454.32
421.959	392.33
422.016	497.95
422.072	454.32
422.128	419.88
422.185	422.18
422.241	341.82
422.297	380.85
422.354	394.63
422.41	364.78
422.466	433.66
422.523	385.44
422.579	390.03
422.635	396.92
422.691	351
422.748	422.18
422.804	442.84
422.86	454.32
422.916	445.14
422.972	385.44
423.029	360.19
423.085	408.4
423.141	394.63
423.197	541.57
423.253	337.23
423.309	417.59
423.365	417.59
423.421	447.43
423.477	415.29
423.533	364.78
423.589	408.4
423.645	367.07
423.701	387.74
423.757	390.03
423.813	410.7
423.869	362.48
423.925	355.59
423.981	458.91
424.037	371.67
424.093	442.84
424.149	422.18
424.205	438.25
424.261	351
424.317	362.48
424.373	426.77
424.428	484.17
424.484	364.78
424.54	330.34
424.596	412.99
424.652	390.03
424.708	351
424.763	355.59
424.819	392.33
424.875	392.33
424.931	468.1
424.986	371.67
425.042	461.21
425.098	433.66
425.153	484.17
425.209	470.39
425.265	454.32
425.32	431.36
425.376	417.59
425.432	383.15
425.487	371.67
425.543	376.26
425.598	373.96
425.654	385.44
425.709	383.15
425.765	394.63
425.82	323.45
425.876	419.88
425.932	364.78
425.987	387.74
426.042	355.59
426.098	376.26
426.153	387.74
426.209	383.15
426.264	431.36
426.32	355.59
426.375	410.7
426.43	390.03
426.486	406.11
426.541	452.03
426.597	387.74
426.652	401.51
426.707	348.71
426.763	422.18
426.818	445.14
426.873	376.26
426.928	406.11
426.984	341.82
427.039	419.88
427.094	279.83
427.149	396.92
427.205	344.11
427.26	417.59
427.315	369.37
427.37	344.11
427.425	399.22
427.48	408.4
427.536	412.99
427.591	417.59
427.646	440.55
427.701	385.44
427.756	348.71
427.811	396.92
427.866	403.81
427.921	364.78
427.976	364.78
428.031	419.88
428.086	353.3
428.141	392.33
428.196	433.66
428.251	341.82
428.306	387.74
428.361	408.4
428.416	429.07
428.471	408.4
428.526	371.67
428.581	399.22
428.636	426.77
428.691	387.74
428.745	357.89
428.8	408.4
428.855	458.91
428.91	362.48
428.965	431.36
429.02	364.78
429.074	399.22
429.129	442.84
429.184	348.71
429.239	387.74
429.293	346.41
429.348	390.03
429.403	403.81
429.457	387.74
429.512	357.89
429.567	332.63
429.621	403.81
429.676	378.55
429.731	334.93
429.785	355.59
429.84	399.22
429.895	424.47
429.949	348.71
430.004	344.11
430.058	456.62
430.113	367.07
430.167	367.07
430.222	332.63
430.276	307.38
430.331	346.41
430.385	415.29
430.44	351
430.494	394.63
430.549	376.26
430.603	392.33
430.657	422.18
430.712	394.63
430.766	346.41
430.821	401.51
430.875	419.88
430.929	415.29
430.984	378.55
431.038	378.55
431.092	360.19
431.147	378.55
431.201	353.3
431.255	412.99
431.309	316.56
431.364	367.07
431.418	422.18
431.472	348.71
431.526	378.55
431.581	417.59
431.635	415.29
431.689	286.71
431.743	337.23
431.797	412.99
431.851	353.3
431.906	353.3
431.96	426.77
432.014	406.11
432.068	396.92
432.122	321.15
432.176	394.63
432.23	357.89
432.284	380.85
432.338	353.3
432.392	341.82
432.446	401.51
432.5	415.29
432.554	422.18
432.608	399.22
432.662	458.91
432.716	392.33
432.77	321.15
432.824	429.07
432.878	426.77
432.931	392.33
432.985	355.59
433.039	378.55
433.093	355.59
433.147	376.26
433.201	369.37
433.254	341.82
433.308	357.89
433.362	328.04
433.416	438.25
433.47	367.07
433.523	412.99
433.577	419.88
433.631	383.15
433.684	415.29
433.738	346.41
433.792	392.33
433.846	383.15
433.899	415.29
433.953	394.63
434.006	332.63
434.06	373.96
434.114	351
434.167	351
434.221	351
