Data from FLMS155811_13-12-20-277.txt Node
Date: Wed Mar 25 13:12:20 MDT 2020
User: ECEn Student
Spectrometer: FLMS15581
Trigger mode: 0
Integration Time (sec): 1.000000E-1
Scans to average: 1
Electric dark correction enabled: true
Nonlinearity correction enabled: false
Boxcar width: 0
XAxis mode: Wavelengths
Number of Pixels in Spectrum: 2048
>>>>>Begin Spectral Data<<<<<
298.026	10.05
298.106	10.05
298.185	10.05
298.265	-31.28
298.344	-139.2
298.424	-56.54
298.503	-65.72
298.583	-90.98
298.662	-45.06
298.741	-35.88
298.821	-68.02
298.9	-26.69
298.98	-56.54
299.059	35.3
299.138	44.49
299.217	-3.73
299.297	30.71
299.376	37.6
299.455	101.89
299.535	97.29
299.614	101.89
299.693	117.96
299.772	122.55
299.852	154.69
299.931	170.77
300.01	145.51
300.089	244.24
300.168	269.49
300.247	239.65
300.327	326.89
300.406	280.97
300.485	253.42
300.564	255.72
300.643	324.6
300.722	354.45
300.801	303.93
300.88	363.63
300.959	313.12
301.038	320.01
301.117	391.18
301.196	338.37
301.275	326.89
301.354	333.78
301.433	280.97
301.512	354.45
301.591	418.73
301.67	395.77
301.749	365.93
301.828	368.22
301.907	336.08
301.985	409.55
302.064	297.05
302.143	363.63
302.222	365.93
302.301	441.69
302.38	382
302.458	361.33
302.537	400.37
302.616	409.55
302.695	283.27
302.773	400.37
302.852	379.7
302.931	345.26
303.01	322.3
303.088	326.89
303.167	359.04
303.246	315.41
303.324	345.26
303.403	310.82
303.481	340.67
303.56	310.82
303.639	338.37
303.717	349.85
303.796	404.96
303.874	352.15
303.953	359.04
304.032	331.49
304.11	379.7
304.189	347.56
304.267	347.56
304.346	333.78
304.424	310.82
304.502	333.78
304.581	345.26
304.659	313.12
304.738	320.01
304.816	280.97
304.895	329.19
304.973	368.22
305.051	287.86
305.13	326.89
305.208	303.93
305.286	349.85
305.365	306.23
305.443	342.97
305.521	345.26
305.6	347.56
305.678	352.15
305.756	333.78
305.834	342.97
305.913	409.55
305.991	290.16
306.069	306.23
306.147	398.07
306.225	356.74
306.304	308.53
306.382	336.08
306.46	338.37
306.538	361.33
306.616	345.26
306.694	363.63
306.772	382
306.85	386.59
306.929	278.68
307.007	340.67
307.085	391.18
307.163	441.69
307.241	356.74
307.319	393.48
307.397	333.78
307.475	326.89
307.553	347.56
307.631	363.63
307.709	363.63
307.786	379.7
307.864	372.81
307.942	368.22
308.02	262.61
308.098	253.42
308.176	324.6
308.254	391.18
308.332	388.89
308.409	386.59
308.487	391.18
308.565	338.37
308.643	382
308.721	402.66
308.798	320.01
308.876	331.49
308.954	345.26
309.032	340.67
309.109	349.85
309.187	340.67
309.265	388.89
309.342	391.18
309.42	315.41
309.498	301.64
309.575	333.78
309.653	375.11
309.731	299.34
309.808	379.7
309.886	322.3
309.963	352.15
310.041	391.18
310.119	331.49
310.196	342.97
310.274	384.29
310.351	356.74
310.429	303.93
310.506	416.44
310.584	338.37
310.661	331.49
310.738	345.26
310.816	361.33
310.893	384.29
310.971	331.49
311.048	375.11
311.126	340.67
311.203	356.74
311.28	345.26
311.358	301.64
311.435	359.04
311.512	306.23
311.59	372.81
311.667	326.89
311.744	418.73
311.821	324.6
311.899	324.6
311.976	303.93
312.053	336.08
312.13	331.49
312.208	338.37
312.285	352.15
312.362	407.25
312.439	391.18
312.516	375.11
312.593	391.18
312.671	365.93
312.748	384.29
312.825	317.71
312.902	336.08
312.979	368.22
313.056	326.89
313.133	391.18
313.21	409.55
313.287	349.85
313.364	365.93
313.441	336.08
313.518	418.73
313.595	391.18
313.672	356.74
313.749	308.53
313.826	349.85
313.903	382
313.98	308.53
314.057	395.77
314.134	377.41
314.211	320.01
314.287	382
314.364	377.41
314.441	361.33
314.518	361.33
314.595	340.67
314.672	382
314.748	416.44
314.825	361.33
314.902	375.11
314.979	448.58
315.055	377.41
315.132	361.33
315.209	384.29
315.286	460.06
315.362	414.14
315.439	388.89
315.516	384.29
315.592	340.67
315.669	388.89
315.746	407.25
315.822	393.48
315.899	395.77
315.975	421.03
316.052	416.44
316.128	402.66
316.205	382
316.282	269.49
316.358	345.26
316.435	361.33
316.511	322.3
316.588	404.96
316.664	384.29
316.741	377.41
316.817	430.21
316.893	425.62
316.97	379.7
317.046	432.51
317.123	347.56
317.199	317.71
317.275	361.33
317.352	425.62
317.428	430.21
317.504	363.63
317.581	322.3
317.657	384.29
317.733	356.74
317.81	437.1
317.886	359.04
317.962	489.91
318.038	340.67
318.115	372.81
318.191	432.51
318.267	375.11
318.343	384.29
318.419	398.07
318.496	345.26
318.572	375.11
318.648	414.14
318.724	409.55
318.8	375.11
318.876	372.81
318.952	395.77
319.028	365.93
319.105	395.77
319.181	336.08
319.257	377.41
319.333	434.81
319.409	349.85
319.485	365.93
319.561	409.55
319.637	347.56
319.713	356.74
319.789	384.29
319.865	377.41
319.94	400.37
320.016	404.96
320.092	414.14
320.168	377.41
320.244	379.7
320.32	313.12
320.396	416.44
320.472	388.89
320.547	448.58
320.623	466.95
320.699	342.97
320.775	421.03
320.851	402.66
320.926	372.81
321.002	331.49
321.078	421.03
321.154	326.89
321.229	345.26
321.305	391.18
321.381	352.15
321.456	368.22
321.532	391.18
321.608	386.59
321.683	354.45
321.759	352.15
321.835	347.56
321.91	377.41
321.986	361.33
322.061	377.41
322.137	361.33
322.212	418.73
322.288	365.93
322.364	361.33
322.439	443.99
322.515	388.89
322.59	354.45
322.666	336.08
322.741	352.15
322.816	342.97
322.892	356.74
322.967	368.22
323.043	372.81
323.118	365.93
323.193	416.44
323.269	404.96
323.344	384.29
323.42	409.55
323.495	437.1
323.57	421.03
323.646	407.25
323.721	409.55
323.796	395.77
323.871	363.63
323.947	400.37
324.022	434.81
324.097	400.37
324.172	466.95
324.248	308.53
324.323	354.45
324.398	361.33
324.473	345.26
324.548	368.22
324.623	404.96
324.699	345.26
324.774	453.17
324.849	404.96
324.924	365.93
324.999	324.6
325.074	391.18
325.149	384.29
325.224	388.89
325.299	418.73
325.374	443.99
325.449	409.55
325.524	354.45
325.599	352.15
325.674	432.51
325.749	361.33
325.824	395.77
325.899	391.18
325.974	379.7
326.049	375.11
326.124	388.89
326.199	320.01
326.273	349.85
326.348	388.89
326.423	423.33
326.498	416.44
326.573	386.59
326.648	379.7
326.722	347.56
326.797	462.36
326.872	361.33
326.947	434.81
327.021	356.74
327.096	354.45
327.171	379.7
327.245	297.05
327.32	411.85
327.395	418.73
327.47	368.22
327.544	430.21
327.619	398.07
327.693	437.1
327.768	409.55
327.843	393.48
327.917	400.37
327.992	352.15
328.066	326.89
328.141	331.49
328.215	395.77
328.29	404.96
328.364	320.01
328.439	395.77
328.513	416.44
328.588	411.85
328.662	375.11
328.737	391.18
328.811	388.89
328.886	365.93
328.96	441.69
329.035	382
329.109	404.96
329.183	388.89
329.258	400.37
329.332	411.85
329.406	423.33
329.481	402.66
329.555	370.52
329.629	409.55
329.704	395.77
329.778	448.58
329.852	368.22
329.926	411.85
330.001	345.26
330.075	379.7
330.149	395.77
330.223	416.44
330.297	455.47
330.372	345.26
330.446	411.85
330.52	425.62
330.594	375.11
330.668	372.81
330.742	409.55
330.816	377.41
330.89	425.62
330.964	363.63
331.038	368.22
331.113	414.14
331.187	347.56
331.261	421.03
331.335	354.45
331.409	402.66
331.483	402.66
331.557	382
331.63	395.77
331.704	395.77
331.778	400.37
331.852	363.63
331.926	418.73
332	402.66
332.074	421.03
332.148	391.18
332.222	395.77
332.295	368.22
332.369	336.08
332.443	363.63
332.517	400.37
332.591	352.15
332.665	361.33
332.738	395.77
332.812	441.69
332.886	455.47
332.959	448.58
333.033	342.97
333.107	434.81
333.181	379.7
333.254	326.89
333.328	409.55
333.402	425.62
333.475	384.29
333.549	347.56
333.622	441.69
333.696	349.85
333.77	352.15
333.843	437.1
333.917	437.1
333.99	398.07
334.064	384.29
334.137	347.56
334.211	336.08
334.284	400.37
334.358	393.48
334.431	414.14
334.505	372.81
334.578	382
334.652	395.77
334.725	391.18
334.799	375.11
334.872	391.18
334.945	391.18
335.019	361.33
335.092	423.33
335.165	423.33
335.239	441.69
335.312	446.29
335.385	384.29
335.459	365.93
335.532	375.11
335.605	407.25
335.678	368.22
335.752	404.96
335.825	427.92
335.898	386.59
335.971	379.7
336.045	356.74
336.118	407.25
336.191	414.14
336.264	425.62
336.337	370.52
336.41	386.59
336.483	365.93
336.557	480.73
336.63	384.29
336.703	466.95
336.776	356.74
336.849	313.12
336.922	439.4
336.995	382
337.068	345.26
337.141	368.22
337.214	411.85
337.287	427.92
337.36	372.81
337.433	400.37
337.506	398.07
337.579	450.88
337.652	386.59
337.725	368.22
337.797	414.14
337.87	421.03
337.943	352.15
338.016	416.44
338.089	402.66
338.162	434.81
338.235	427.92
338.307	370.52
338.38	421.03
338.453	446.29
338.526	388.89
338.598	377.41
338.671	421.03
338.744	372.81
338.817	395.77
338.889	352.15
338.962	365.93
339.035	414.14
339.107	391.18
339.18	384.29
339.253	384.29
339.325	395.77
339.398	416.44
339.47	409.55
339.543	404.96
339.616	359.04
339.688	379.7
339.761	434.81
339.833	391.18
339.906	402.66
339.978	375.11
340.051	453.17
340.123	398.07
340.196	345.26
340.268	377.41
340.341	409.55
340.413	434.81
340.485	393.48
340.558	432.51
340.63	398.07
340.703	409.55
340.775	416.44
340.847	382
340.92	393.48
340.992	439.4
341.064	423.33
341.137	425.62
341.209	386.59
341.281	400.37
341.354	377.41
341.426	384.29
341.498	430.21
341.57	421.03
341.643	437.1
341.715	448.58
341.787	423.33
341.859	395.77
341.931	391.18
342.003	336.08
342.076	418.73
342.148	375.11
342.22	370.52
342.292	414.14
342.364	395.77
342.436	372.81
342.508	432.51
342.58	448.58
342.652	393.48
342.724	393.48
342.796	501.39
342.868	393.48
342.94	423.33
343.012	446.29
343.084	414.14
343.156	418.73
343.228	349.85
343.3	443.99
343.372	418.73
343.444	421.03
343.516	441.69
343.588	421.03
343.66	375.11
343.731	450.88
343.803	409.55
343.875	356.74
343.947	400.37
344.019	391.18
344.09	388.89
344.162	437.1
344.234	414.14
344.306	400.37
344.377	377.41
344.449	370.52
344.521	427.92
344.593	434.81
344.664	446.29
344.736	384.29
344.808	439.4
344.879	423.33
344.951	333.78
345.023	446.29
345.094	414.14
345.166	515.17
345.237	443.99
345.309	398.07
345.38	404.96
345.452	379.7
345.524	402.66
345.595	388.89
345.667	393.48
345.738	443.99
345.81	393.48
345.881	382
345.953	402.66
346.024	377.41
346.095	416.44
346.167	404.96
346.238	372.81
346.31	386.59
346.381	402.66
346.452	421.03
346.524	421.03
346.595	386.59
346.666	407.25
346.738	414.14
346.809	400.37
346.88	414.14
346.952	398.07
347.023	443.99
347.094	384.29
347.165	386.59
347.237	411.85
347.308	375.11
347.379	430.21
347.45	441.69
347.521	439.4
347.593	363.63
347.664	427.92
347.735	372.81
347.806	411.85
347.877	414.14
347.948	400.37
348.019	386.59
348.09	372.81
348.161	473.84
348.233	430.21
348.304	382
348.375	393.48
348.446	450.88
348.517	432.51
348.588	446.29
348.659	427.92
348.73	496.8
348.801	347.56
348.871	342.97
348.942	473.84
349.013	363.63
349.084	443.99
349.155	460.06
349.226	421.03
349.297	386.59
349.368	432.51
349.439	466.95
349.509	453.17
349.58	455.47
349.651	439.4
349.722	379.7
349.793	427.92
349.863	361.33
349.934	404.96
350.005	437.1
350.076	448.58
350.146	460.06
350.217	448.58
350.288	443.99
350.358	432.51
350.429	418.73
350.5	448.58
350.57	460.06
350.641	453.17
350.711	457.77
350.782	441.69
350.853	423.33
350.923	453.17
350.994	425.62
351.064	432.51
351.135	402.66
351.205	416.44
351.276	462.36
351.346	407.25
351.417	421.03
351.487	505.98
351.558	453.17
351.628	439.4
351.699	425.62
351.769	469.25
351.84	421.03
351.91	462.36
351.98	432.51
352.051	421.03
352.121	434.81
352.191	418.73
352.262	388.89
352.332	443.99
352.402	423.33
352.473	411.85
352.543	432.51
352.613	425.62
352.683	466.95
352.754	434.81
352.824	432.51
352.894	476.13
352.964	402.66
353.035	423.33
353.105	462.36
353.175	489.91
353.245	432.51
353.315	487.62
353.385	471.54
353.455	563.38
353.526	480.73
353.596	443.99
353.666	480.73
353.736	476.13
353.806	494.5
353.876	416.44
353.946	503.69
354.016	494.5
354.086	469.25
354.156	487.62
354.226	425.62
354.296	515.17
354.366	496.8
354.436	499.1
354.506	503.69
354.576	517.46
354.645	549.61
354.715	577.16
354.785	535.83
354.855	524.35
354.925	600.12
354.995	597.82
355.065	597.82
355.134	572.57
355.204	609.3
355.274	650.63
355.344	632.26
355.414	655.22
355.483	590.94
355.553	627.67
355.623	652.93
355.693	574.86
355.762	678.18
355.832	691.96
355.902	618.49
355.971	701.14
356.041	675.89
356.111	818.24
356.18	705.74
356.25	802.17
356.319	774.62
356.389	804.46
356.459	779.21
356.528	799.87
356.598	903.19
356.667	811.35
356.737	873.34
356.806	914.67
356.876	1045.55
356.945	995.03
357.015	953.7
357.084	981.26
357.154	1066.21
357.223	1061.62
357.292	1045.55
357.362	1038.66
357.431	1125.91
357.501	1146.57
357.57	1144.27
357.639	1176.42
357.709	1321.07
357.778	1236.11
357.847	1295.81
357.917	1332.55
357.986	1449.64
358.055	1369.28
358.124	1484.08
358.194	1587.4
358.263	1665.47
358.332	1722.87
358.401	1706.8
358.471	1764.2
358.54	1828.48
358.609	1775.68
358.678	1957.06
358.747	1920.32
358.816	2097.12
358.886	2051.2
358.955	2143.04
359.024	2069.57
359.093	2285.39
359.162	2312.94
359.231	2354.27
359.3	2464.48
359.369	2372.64
359.438	2485.14
359.507	2728.52
359.576	2648.16
359.645	2753.78
359.714	2841.02
359.783	2948.94
359.852	3033.89
359.921	2997.15
359.99	3242.83
360.059	3231.35
360.128	3405.84
360.197	3557.38
360.266	3401.25
360.334	3557.38
360.403	3656.11
360.472	3784.68
360.541	3851.27
360.61	4140.57
360.679	4232.41
360.747	4356.39
360.816	4443.64
360.885	4572.22
360.954	4762.78
361.022	5006.16
361.091	5210.51
361.16	5281.68
361.228	5694.96
361.297	5713.33
361.366	5830.43
361.434	6184.01
361.503	6349.33
361.572	6381.47
361.64	6638.62
361.709	6925.63
361.778	6969.25
361.846	7382.53
361.915	7651.16
361.983	7715.45
362.052	7919.8
362.12	7995.57
362.189	8261.9
362.257	8608.6
362.326	8911.67
362.394	9049.43
362.463	9198.68
362.531	9556.85
362.6	9586.7
362.668	10009.17
362.737	10408.67
362.805	10700.27
362.873	11007.93
362.942	11637.04
363.01	11903.37
363.079	12438.34
363.147	13021.53
363.215	13629.97
363.284	13806.77
363.352	14578.23
363.42	14954.77
363.488	15691.79
363.557	16043.08
363.625	16832.91
363.693	17154.35
363.761	17801.82
363.83	18685.79
363.898	18942.94
363.966	19723.58
364.034	20743.01
364.102	20919.8
364.171	21666.01
364.239	22359.4
364.307	23378.83
364.375	24017.12
364.443	24889.6
364.511	25084.77
364.579	26336.09
364.647	27070.81
364.715	27536.9
364.783	28749.2
364.851	29718.11
364.919	30611.26
364.987	31323.02
365.055	32133.51
365.123	33244.78
365.191	33954.25
365.259	34466.26
365.327	35203.28
365.395	35993.11
365.463	36576.29
365.531	37290.35
365.599	38390.14
365.667	39177.67
365.735	39090.42
365.802	39510.59
365.87	40284.35
365.938	40748.14
366.006	41498.94
366.074	42107.38
366.142	42300.24
366.209	42910.98
366.277	43611.27
366.345	44120.98
366.413	44855.7
366.48	45686.86
366.548	46042.74
366.616	46862.42
366.683	47158.6
366.751	47631.58
366.819	48129.81
366.886	48393.85
366.954	48382.37
367.022	49025.26
367.089	49137.76
367.157	49512.01
367.224	49909.22
367.292	50157.19
367.36	50547.51
367.427	51245.5
367.495	51521.02
367.562	51768.99
367.63	52177.68
367.697	52391.21
367.765	52855
367.832	53135.11
367.9	53543.8
367.967	53536.92
368.034	53543.8
368.102	53688.45
368.169	53911.16
368.237	54115.51
368.304	54409.4
368.371	54652.78
368.439	54774.46
368.506	55075.24
368.573	55043.1
368.641	55180.86
368.708	55444.9
368.775	55474.75
368.843	55192.34
368.91	55415.05
368.977	55433.42
369.044	56108.45
369.112	55809.96
369.179	55849
369.246	55890.32
369.313	56101.56
369.38	55966.09
369.448	56133.7
369.515	56177.33
369.582	56423
369.649	56271.46
369.716	56142.89
369.783	56241.61
369.85	56395.45
369.917	56409.22
369.984	56553.87
370.052	56388.56
370.119	56280.65
370.186	56487.29
370.253	56402.34
370.32	56037.27
370.387	55734.2
370.454	55690.57
370.521	56028.09
370.587	55842.11
370.654	55504.6
370.721	55642.36
370.788	55353.06
370.855	55403.57
370.922	55415.05
370.989	54930.59
371.056	54921.41
371.123	54831.86
371.189	54503.54
371.256	54296.89
371.323	54524.2
371.39	53748.15
371.457	53775.7
371.523	53699.93
371.59	53610.39
371.657	53709.12
371.724	53109.86
371.79	53091.49
371.857	52691.98
371.924	52825.15
371.991	52122.57
372.057	52244.26
372.124	52386.61
372.191	52030.73
372.257	51550.87
372.324	51534.79
372.39	50742.67
372.457	50882.73
372.524	50639.35
372.59	50519.96
372.657	50170.97
372.723	50001.06
372.79	49748.5
372.856	49755.39
372.923	49254.86
372.989	49296.19
373.056	48843.87
373.122	48749.74
373.189	49140.06
373.255	49032.14
373.322	48253.8
373.388	47852
373.454	47746.38
373.521	47202.22
373.587	47468.56
373.654	47420.35
373.72	46919.82
373.786	46334.33
373.853	46499.65
373.919	46306.78
373.985	45707.52
374.052	45604.2
374.118	44954.43
374.184	44899.33
374.25	44196.75
374.317	44231.19
374.383	43781.17
374.449	43395.44
374.515	43179.62
374.581	42626.28
374.648	42727.3
374.714	42796.18
374.78	42102.79
374.846	41710.17
374.912	42121.16
374.978	41831.86
375.044	41195.86
375.11	41308.37
375.177	41154.54
375.243	40702.22
375.309	39933.06
375.375	39965.2
375.441	39239.66
375.507	39508.3
375.573	39083.54
375.639	38594.49
375.705	38752.91
375.771	38018.19
375.837	37834.51
375.903	37508.47
375.968	36413.28
376.034	36562.52
376.1	36250.26
376.166	35956.37
376.232	36252.56
376.298	36117.09
376.364	35412.22
376.43	35072.41
376.495	34902.5
376.561	34585.65
376.627	34197.63
376.693	34064.46
376.759	33986.39
376.824	33759.09
376.89	33357.29
376.956	33214.93
377.022	33249.38
377.087	32856.76
377.153	32622.56
377.219	32634.04
377.284	32379.19
377.35	31995.75
377.416	31796
377.481	31812.07
377.547	31100.31
377.613	30974.03
377.678	30611.26
377.744	30370.18
377.809	30028.07
377.875	29800.77
377.94	30009.71
378.006	29382.89
378.071	29389.78
378.137	28976.5
378.202	29077.53
378.268	28893.84
378.333	28501.23
378.399	28207.34
378.464	28074.17
378.53	28000.7
378.595	27789.46
378.661	27913.45
378.726	27334.85
378.791	27162.65
378.857	26854.99
378.922	26597.84
378.987	26907.8
379.053	26650.64
379.118	25977.91
379.183	25732.24
379.249	25902.14
379.314	25546.26
379.379	24990.63
379.444	25114.61
379.51	24774.8
379.575	24345.45
379.64	24366.11
379.705	24184.73
379.771	23778.34
379.836	23208.93
379.901	23222.7
379.966	23179.08
380.031	22719.88
380.096	22324.96
380.161	22435.17
380.227	22308.89
380.292	22060.92
380.357	21519.06
380.422	21335.38
380.487	21597.13
380.552	20919.8
380.617	20979.5
380.682	20717.75
380.747	20299.88
380.812	20357.28
380.877	20054.21
380.942	19840.68
381.007	19530.72
381.072	19643.22
381.137	19089.88
381.202	19099.07
381.266	18812.07
381.331	18492.92
381.396	18300.06
381.461	18070.46
381.526	18185.26
381.591	17856.93
381.656	17749.01
381.72	17703.09
381.785	17308.18
381.85	17085.47
381.915	16851.27
381.979	16628.56
382.044	16477.03
382.109	16394.37
382.174	16272.68
382.238	16114.26
382.303	16109.66
382.368	16029.3
382.432	15900.73
382.497	15659.65
382.562	15572.4
382.626	15524.18
382.691	15207.33
382.756	15166
382.82	15064.98
382.885	14810.12
382.949	14803.23
383.014	14828.49
383.078	14440.46
383.143	14288.93
383.208	14020.3
383.272	13799.88
383.337	13731
383.401	13916.97
383.465	13611.61
383.53	13671.3
383.594	13648.34
383.659	13480.73
383.723	13375.12
383.788	13140.92
383.852	13157
383.916	12759.79
383.981	12964.13
384.045	12640.39
384.109	12651.87
384.174	12440.64
384.238	12383.24
384.302	12270.74
384.367	12277.62
384.431	11999.81
384.495	11981.44
384.56	11924.04
384.624	11694.44
384.688	11614.08
384.752	11558.97
384.816	11503.87
384.881	11460.24
384.945	11276.56
385.009	11370.7
385.073	10980.38
385.137	10723.23
385.201	10833.43
385.265	10828.84
385.33	10877.06
385.394	10617.61
385.458	10521.18
385.522	10530.36
385.586	10436.22
385.65	10261.73
385.714	10146.93
385.778	9882.89
385.842	10043.61
385.906	10018.35
385.97	10009.17
386.034	9841.56
386.098	9857.63
386.162	9584.4
386.226	9437.46
386.29	9276.74
386.354	9396.13
386.417	9219.34
386.481	9285.92
386.545	8771.62
386.609	8760.14
386.673	8870.35
386.737	8702.74
386.8	8640.74
386.864	8622.38
386.928	8390.48
386.992	8486.91
387.056	8491.5
387.119	8147.1
387.183	8137.92
387.247	8133.33
387.31	7965.72
387.374	7857.81
387.438	7910.61
387.502	7685.6
387.565	7614.43
387.629	7653.46
387.692	7596.06
387.756	7419.27
387.82	7467.48
387.883	7451.41
387.947	7332.02
388.01	7065.68
388.074	7104.71
388.138	6960.07
388.201	6882
388.265	6927.92
388.328	6716.69
388.392	6599.59
388.455	6383.77
388.519	6482.5
388.582	6459.54
388.645	6367.7
388.709	6337.85
388.772	6335.55
388.836	6021
388.899	6142.69
388.962	6225.34
389.026	6018.7
389.089	5919.97
389.153	5717.92
389.216	5694.96
389.279	5621.49
389.343	5665.12
389.406	5649.04
389.469	5359.75
389.532	5444.7
389.596	5339.08
389.659	5405.67
389.722	5417.15
389.785	5203.62
389.848	5042.9
389.912	5104.89
389.975	5111.78
390.038	4895.95
390.101	4937.28
390.164	4875.29
390.227	4882.18
390.291	4753.6
390.354	4788.04
390.417	4808.7
390.48	4730.64
390.543	4592.88
390.606	4629.62
390.669	4544.66
390.732	4620.43
390.795	4420.68
390.858	4480.38
390.921	4365.58
390.984	4409.2
391.047	4347.21
391.11	4328.84
391.173	4294.4
391.236	4223.22
391.299	4319.65
391.362	4237
391.424	4117.61
391.487	4060.21
391.55	4078.57
391.613	4011.99
391.676	4044.13
391.739	3855.86
391.802	3897.19
391.864	3800.76
391.927	3610.19
391.99	3708.92
392.053	3890.3
392.115	3695.14
392.178	3702.03
392.241	3630.85
392.304	3591.82
392.366	3610.19
392.429	3543.6
392.492	3447.17
392.554	3369.11
392.617	3543.6
392.68	3373.7
392.742	3458.65
392.805	3396.66
392.867	3334.67
392.93	3270.38
392.992	3332.37
393.055	3270.38
393.118	3210.68
393.18	3148.69
393.243	3075.22
393.305	3155.58
393.368	3157.87
393.43	2948.94
393.493	2976.49
393.555	3008.63
393.618	3027
393.68	2939.75
393.742	2877.76
393.805	2827.25
393.867	2746.89
393.93	2696.38
393.992	2721.63
394.054	2767.55
394.117	2710.15
394.179	2666.53
394.241	2645.86
394.304	2616.02
394.366	2620.61
394.428	2565.5
394.49	2505.81
394.553	2446.11
394.615	2457.59
394.677	2501.22
394.739	2436.93
394.802	2356.57
394.864	2432.34
394.926	2351.97
394.988	2322.13
395.05	2299.17
395.112	2283.09
395.174	2315.24
395.237	2271.61
395.299	2246.36
395.361	2267.02
395.423	2232.58
395.485	2129.26
395.547	2207.33
395.609	2177.48
395.671	2081.05
395.733	2051.2
395.795	2113.19
395.857	2115.49
395.919	2106.3
395.981	2007.57
396.043	2074.16
396.105	1968.54
396.167	1867.52
396.229	1908.84
396.291	1993.8
396.352	1883.59
396.414	1872.11
396.476	1734.35
396.538	1842.26
396.6	1812.41
396.662	1812.41
396.724	1695.32
396.785	1773.38
396.847	1764.2
396.909	1826.19
396.971	1674.65
397.032	1681.54
397.094	1665.47
397.156	1610.36
397.218	1621.84
397.279	1610.36
397.341	1642.51
397.403	1633.32
397.464	1546.08
397.526	1640.21
397.588	1546.08
397.649	1562.15
397.711	1442.75
397.772	1500.16
397.834	1502.45
397.896	1431.27
397.957	1449.64
398.019	1348.62
398.08	1417.5
398.142	1442.75
398.203	1451.94
398.265	1406.02
398.326	1415.2
398.388	1408.31
398.449	1348.62
398.511	1298.11
398.572	1275.15
398.633	1362.39
398.695	1357.8
398.756	1341.73
398.818	1270.55
398.879	1350.91
398.94	1284.33
399.002	1295.81
399.063	1275.15
399.124	1270.55
399.186	1284.33
399.247	1263.67
399.308	1311.88
399.369	1185.6
399.431	1155.75
399.492	1217.75
399.553	1162.64
399.614	1213.15
399.676	1123.61
399.737	1176.42
399.798	1116.72
399.859	1139.68
399.92	1128.2
399.981	1100.65
400.042	1119.02
400.104	1162.64
400.165	1215.45
400.226	1190.19
400.287	1190.19
400.348	1093.76
400.409	1089.17
400.47	1082.28
400.531	969.78
400.592	1047.84
400.653	1137.39
400.714	1061.62
400.775	983.55
400.836	1075.39
400.897	1109.83
400.958	1024.88
401.019	1006.51
401.08	1045.55
401.141	999.63
401.201	1001.92
401.262	1034.07
401.323	1020.29
401.384	933.04
401.445	946.82
401.506	962.89
401.567	946.82
401.627	958.3
401.688	974.37
401.749	958.3
401.81	946.82
401.87	898.6
401.931	843.5
401.992	894.01
402.053	930.74
402.113	884.82
402.174	850.38
402.235	882.53
402.295	926.15
402.356	898.6
402.417	875.64
402.477	910.08
402.538	871.05
402.598	956
402.659	914.67
402.719	825.13
402.78	871.05
402.841	859.57
402.901	972.07
402.962	827.42
403.022	813.65
403.083	845.79
403.143	799.87
403.204	859.57
403.264	760.84
403.324	873.34
403.385	825.13
403.445	815.94
403.506	804.46
403.566	836.61
403.627	843.5
403.687	818.24
403.747	799.87
403.808	786.1
403.868	747.06
403.928	717.22
403.989	779.21
404.049	792.98
404.109	767.73
404.169	747.06
404.23	728.7
404.29	721.81
404.35	682.78
404.41	694.26
404.47	737.88
404.531	848.09
404.591	841.2
404.651	747.06
404.711	744.77
404.771	756.25
404.831	797.58
404.892	758.54
404.952	783.8
405.012	751.66
405.072	792.98
405.132	652.93
405.192	744.77
405.252	701.14
405.312	717.22
405.372	691.96
405.432	714.92
405.492	696.55
405.552	774.62
405.612	710.33
405.672	646.04
405.732	629.97
405.792	730.99
405.852	664.41
405.912	618.49
405.971	701.14
406.031	671.3
406.091	639.15
406.151	632.26
406.211	659.82
406.271	682.78
406.33	655.22
406.39	666.7
406.45	634.56
406.51	675.89
406.57	627.67
406.629	682.78
406.689	708.03
406.749	558.79
406.808	584.05
406.868	618.49
406.928	650.63
406.988	595.53
407.047	602.42
407.107	593.23
407.166	618.49
407.226	675.89
407.286	611.6
407.345	607.01
407.405	657.52
407.464	650.63
407.524	593.23
407.584	620.78
407.643	595.53
407.703	579.46
407.762	634.56
407.822	611.6
407.881	574.86
407.941	607.01
408	632.26
408.059	558.79
408.119	611.6
408.178	588.64
408.238	600.12
408.297	625.38
408.356	611.6
408.416	579.46
408.475	595.53
408.535	554.2
408.594	572.57
408.653	597.82
408.712	627.67
408.772	579.46
408.831	549.61
408.89	609.3
408.95	618.49
409.009	549.61
409.068	540.42
409.127	588.64
409.186	604.71
409.246	563.38
409.305	561.09
409.364	533.54
409.423	512.87
409.482	593.23
409.541	604.71
409.6	540.42
409.66	604.71
409.719	542.72
409.778	519.76
409.837	556.5
409.896	533.54
409.955	528.94
410.014	554.2
410.073	478.43
410.132	538.13
410.191	489.91
410.25	561.09
410.309	499.1
410.368	503.69
410.427	561.09
410.486	526.65
410.545	632.26
410.603	545.02
410.662	519.76
410.721	485.32
410.78	522.06
410.839	483.02
410.898	554.2
410.957	515.17
411.015	519.76
411.074	561.09
411.133	570.27
411.192	499.1
411.25	471.54
411.309	565.68
411.368	499.1
411.427	471.54
411.485	517.46
411.544	535.83
411.603	473.84
411.661	540.42
411.72	545.02
411.779	535.83
411.837	489.91
411.896	478.43
411.955	501.39
412.013	480.73
412.072	485.32
412.13	462.36
412.189	503.69
412.247	510.58
412.306	471.54
412.364	460.06
412.423	453.17
412.481	510.58
412.54	469.25
412.598	512.87
412.657	480.73
412.715	471.54
412.774	473.84
412.832	526.65
412.891	446.29
412.949	494.5
413.007	508.28
413.066	473.84
413.124	485.32
413.182	441.69
413.241	473.84
413.299	535.83
413.357	483.02
413.416	400.37
413.474	448.58
413.532	542.72
413.59	443.99
413.649	510.58
413.707	446.29
413.765	455.47
413.823	526.65
413.881	466.95
413.94	501.39
413.998	450.88
414.056	469.25
414.114	443.99
414.172	437.1
414.23	496.8
414.288	462.36
414.347	480.73
414.405	443.99
414.463	478.43
414.521	453.17
414.579	466.95
414.637	430.21
414.695	462.36
414.753	448.58
414.811	421.03
414.869	427.92
414.927	414.14
414.985	448.58
415.043	501.39
415.101	427.92
415.158	469.25
415.216	453.17
415.274	404.96
415.332	427.92
415.39	363.63
415.448	430.21
415.506	453.17
415.563	462.36
415.621	400.37
415.679	414.14
415.737	414.14
415.795	453.17
415.852	448.58
415.91	446.29
415.968	398.07
416.026	443.99
416.083	453.17
416.141	418.73
416.199	418.73
416.256	388.89
416.314	443.99
416.372	457.77
416.429	519.76
416.487	418.73
416.544	439.4
416.602	485.32
416.66	501.39
416.717	437.1
416.775	446.29
416.832	409.55
416.89	414.14
416.947	469.25
417.005	404.96
417.062	483.02
417.12	437.1
417.177	448.58
417.235	425.62
417.292	421.03
417.35	492.21
417.407	437.1
417.464	427.92
417.522	425.62
417.579	473.84
417.637	404.96
417.694	446.29
417.751	437.1
417.809	453.17
417.866	460.06
417.923	416.44
417.981	359.04
418.038	404.96
418.095	416.44
418.152	421.03
418.21	411.85
418.267	476.13
418.324	430.21
418.381	375.11
418.438	455.47
418.496	391.18
418.553	414.14
418.61	441.69
418.667	473.84
418.724	469.25
418.781	391.18
418.838	462.36
418.895	402.66
418.952	400.37
419.01	416.44
419.067	359.04
419.124	430.21
419.181	427.92
419.238	432.51
419.295	407.25
419.352	379.7
419.409	391.18
419.466	437.1
419.523	365.93
419.579	489.91
419.636	425.62
419.693	386.59
419.75	414.14
419.807	372.81
419.864	421.03
419.921	352.15
419.978	342.97
420.034	375.11
420.091	418.73
420.148	409.55
420.205	379.7
420.262	416.44
420.318	354.45
420.375	414.14
420.432	400.37
420.489	379.7
420.545	448.58
420.602	391.18
420.659	365.93
420.715	409.55
420.772	411.85
420.829	437.1
420.885	437.1
420.942	391.18
420.999	313.12
421.055	354.45
421.112	409.55
421.168	395.77
421.225	391.18
421.282	443.99
421.338	400.37
421.395	437.1
421.451	402.66
421.508	391.18
421.564	352.15
421.621	432.51
421.677	363.63
421.734	345.26
421.79	409.55
421.846	416.44
421.903	439.4
421.959	386.59
422.016	386.59
422.072	441.69
422.128	443.99
422.185	331.49
422.241	466.95
422.297	398.07
422.354	407.25
422.41	416.44
422.466	425.62
422.523	418.73
422.579	402.66
422.635	379.7
422.691	384.29
422.748	388.89
422.804	409.55
422.86	391.18
422.916	425.62
422.972	363.63
423.029	402.66
423.085	363.63
423.141	404.96
423.197	411.85
423.253	377.41
423.309	437.1
423.365	441.69
423.421	379.7
423.477	391.18
423.533	388.89
423.589	386.59
423.645	347.56
423.701	388.89
423.757	400.37
423.813	457.77
423.869	425.62
423.925	414.14
423.981	338.37
424.037	372.81
424.093	303.93
424.149	361.33
424.205	407.25
424.261	386.59
424.317	391.18
424.373	347.56
424.428	352.15
424.484	393.48
424.54	356.74
424.596	400.37
424.652	368.22
424.708	425.62
424.763	404.96
424.819	423.33
424.875	395.77
424.931	416.44
424.986	448.58
425.042	333.78
425.098	398.07
425.153	421.03
425.209	425.62
425.265	400.37
425.32	361.33
425.376	402.66
425.432	418.73
425.487	388.89
425.543	409.55
425.598	375.11
425.654	423.33
425.709	285.57
425.765	379.7
425.82	427.92
425.876	382
425.932	393.48
425.987	375.11
426.042	333.78
426.098	377.41
426.153	414.14
426.209	427.92
426.264	349.85
426.32	361.33
426.375	425.62
426.43	407.25
426.486	409.55
426.541	384.29
426.597	375.11
426.652	379.7
426.707	370.52
426.763	377.41
426.818	359.04
426.873	340.67
426.928	365.93
426.984	457.77
427.039	375.11
427.094	365.93
427.149	356.74
427.205	404.96
427.26	391.18
427.315	345.26
427.37	418.73
427.425	418.73
427.48	361.33
427.536	303.93
427.591	326.89
427.646	368.22
427.701	354.45
427.756	365.93
427.811	411.85
427.866	382
427.921	430.21
427.976	372.81
428.031	331.49
428.086	432.51
428.141	382
428.196	372.81
428.251	437.1
428.306	370.52
428.361	434.81
428.416	326.89
428.471	303.93
428.526	395.77
428.581	421.03
428.636	416.44
428.691	363.63
428.745	356.74
428.8	398.07
428.855	331.49
428.91	411.85
428.965	432.51
429.02	354.45
429.074	388.89
429.129	361.33
429.184	359.04
429.239	375.11
429.293	382
429.348	370.52
429.403	375.11
429.457	402.66
429.512	400.37
429.567	354.45
429.621	342.97
429.676	414.14
429.731	368.22
429.785	303.93
429.84	386.59
429.895	393.48
429.949	407.25
430.004	370.52
430.058	384.29
430.113	398.07
430.167	377.41
430.222	338.37
430.276	421.03
430.331	368.22
430.385	411.85
430.44	439.4
430.494	382
430.549	386.59
430.603	333.78
430.657	404.96
430.712	372.81
430.766	377.41
430.821	338.37
430.875	393.48
430.929	421.03
430.984	359.04
431.038	370.52
431.092	345.26
431.147	386.59
431.201	423.33
431.255	388.89
431.309	388.89
431.364	340.67
431.418	388.89
431.472	439.4
431.526	370.52
431.581	324.6
431.635	388.89
431.689	365.93
431.743	345.26
431.797	338.37
431.851	375.11
431.906	301.64
431.96	395.77
432.014	354.45
432.068	267.2
432.122	271.79
432.176	354.45
432.23	402.66
432.284	395.77
432.338	398.07
432.392	303.93
432.446	354.45
432.5	441.69
432.554	361.33
432.608	315.41
432.662	402.66
432.716	349.85
432.77	315.41
432.824	356.74
432.878	347.56
432.931	354.45
432.985	301.64
433.039	388.89
433.093	359.04
433.147	336.08
433.201	359.04
433.254	427.92
433.308	310.82
433.362	416.44
433.416	372.81
433.47	402.66
433.523	391.18
433.577	363.63
433.631	338.37
433.684	359.04
433.738	395.77
433.792	391.18
433.846	326.89
433.899	331.49
433.953	361.33
434.006	315.41
434.06	372.81
434.114	345.26
434.167	345.26
434.221	345.26
