Data from FLMS155811_12-33-17-828.txt Node
Date: Mon Mar 23 12:33:17 MDT 2020
User: ECEn Student
Spectrometer: FLMS15581
Trigger mode: 0
Integration Time (sec): 1.000000E-1
Scans to average: 1
Electric dark correction enabled: true
Nonlinearity correction enabled: false
Boxcar width: 0
XAxis mode: Wavelengths
Number of Pixels in Spectrum: 2048
>>>>>Begin Spectral Data<<<<<
298.026	-15.64
298.106	-15.64
298.185	-15.64
298.265	-13.35
298.344	-70.75
298.424	-29.42
298.503	-105.19
298.583	-59.27
298.662	-29.42
298.741	-47.79
298.821	-73.04
298.9	-11.05
298.98	-47.79
299.059	32.57
299.138	5.02
299.217	-17.94
299.297	27.98
299.376	73.9
299.455	62.42
299.535	122.12
299.614	96.86
299.693	179.52
299.772	87.68
299.852	193.3
299.931	168.04
300.01	227.74
300.089	223.14
300.168	328.76
300.247	220.85
300.327	282.84
300.406	248.4
300.485	241.51
300.564	280.54
300.643	358.61
300.722	303.5
300.801	298.91
300.88	305.8
300.959	356.31
301.038	372.38
301.117	418.3
301.196	328.76
301.275	360.9
301.354	390.75
301.433	379.27
301.512	356.31
301.591	427.49
301.67	374.68
301.749	406.82
301.828	351.72
301.907	381.57
301.985	494.07
302.064	418.3
302.143	374.68
302.222	425.19
302.301	397.64
302.38	376.98
302.458	360.9
302.537	395.34
302.616	333.35
302.695	429.78
302.773	395.34
302.852	356.31
302.931	395.34
303.01	383.86
303.088	422.9
303.167	354.02
303.246	326.46
303.324	340.24
303.403	363.2
303.481	372.38
303.56	328.76
303.639	370.09
303.717	390.75
303.796	374.68
303.874	324.17
303.953	399.94
304.032	292.02
304.11	365.5
304.189	340.24
304.267	370.09
304.346	388.46
304.424	390.75
304.502	367.79
304.581	326.46
304.659	319.58
304.738	310.39
304.816	383.86
304.895	298.91
304.973	406.82
305.051	367.79
305.13	349.42
305.208	376.98
305.286	319.58
305.365	393.05
305.443	331.06
305.521	321.87
305.6	358.61
305.678	312.69
305.756	367.79
305.834	390.75
305.913	326.46
305.991	409.12
306.069	399.94
306.147	409.12
306.225	342.54
306.304	310.39
306.382	342.54
306.46	365.5
306.538	370.09
306.616	360.9
306.694	308.1
306.772	365.5
306.85	372.38
306.929	333.35
307.007	310.39
307.085	347.13
307.163	321.87
307.241	365.5
307.319	429.78
307.397	340.24
307.475	395.34
307.553	372.38
307.631	445.86
307.709	381.57
307.786	303.5
307.864	340.24
307.942	438.97
308.02	351.72
308.098	319.58
308.176	317.28
308.254	344.83
308.332	358.61
308.409	305.8
308.487	335.65
308.565	420.6
308.643	328.76
308.721	404.53
308.798	360.9
308.876	324.17
308.954	404.53
309.032	358.61
309.109	321.87
309.187	337.94
309.265	333.35
309.342	372.38
309.42	372.38
309.498	335.65
309.575	363.2
309.653	397.64
309.731	406.82
309.808	383.86
309.886	388.46
309.963	365.5
310.041	347.13
310.119	356.31
310.196	367.79
310.274	337.94
310.351	381.57
310.429	372.38
310.506	271.36
310.584	399.94
310.661	376.98
310.738	360.9
310.816	379.27
310.893	438.97
310.971	397.64
311.048	372.38
311.126	388.46
311.203	374.68
311.28	321.87
311.358	420.6
311.435	365.5
311.512	388.46
311.59	312.69
311.667	335.65
311.744	395.34
311.821	427.49
311.899	402.23
311.976	432.08
312.053	388.46
312.13	455.04
312.208	379.27
312.285	349.42
312.362	344.83
312.439	374.68
312.516	374.68
312.593	411.42
312.671	395.34
312.748	337.94
312.825	335.65
312.902	381.57
312.979	372.38
313.056	363.2
313.133	413.71
313.21	370.09
313.287	411.42
313.364	397.64
313.441	388.46
313.518	363.2
313.595	425.19
313.672	395.34
313.749	374.68
313.826	406.82
313.903	333.35
313.98	416.01
314.057	413.71
314.134	390.75
314.211	383.86
314.287	461.93
314.364	365.5
314.441	432.08
314.518	351.72
314.595	390.75
314.672	379.27
314.748	386.16
314.825	381.57
314.902	356.31
314.979	379.27
315.055	443.56
315.132	413.71
315.209	360.9
315.286	422.9
315.362	397.64
315.439	388.46
315.516	395.34
315.592	425.19
315.669	372.38
315.746	397.64
315.822	365.5
315.899	381.57
315.975	425.19
316.052	342.54
316.128	411.42
316.205	386.16
316.282	360.9
316.358	388.46
316.435	370.09
316.511	450.45
316.588	363.2
316.664	388.46
316.741	365.5
316.817	393.05
316.893	395.34
316.97	287.43
317.046	370.09
317.123	432.08
317.199	395.34
317.275	386.16
317.352	347.13
317.428	370.09
317.504	354.02
317.581	376.98
317.657	422.9
317.733	418.3
317.81	397.64
317.886	416.01
317.962	413.71
318.038	464.22
318.115	351.72
318.191	397.64
318.267	438.97
318.343	386.16
318.419	393.05
318.496	379.27
318.572	406.82
318.648	390.75
318.724	427.49
318.8	404.53
318.876	370.09
318.952	314.98
319.028	448.15
319.105	351.72
319.181	399.94
319.257	420.6
319.333	425.19
319.409	376.98
319.485	397.64
319.561	397.64
319.637	436.67
319.713	420.6
319.789	441.26
319.865	434.38
319.94	416.01
320.016	360.9
320.092	455.04
320.168	354.02
320.244	370.09
320.32	360.9
320.396	383.86
320.472	360.9
320.547	438.97
320.623	420.6
320.699	347.13
320.775	376.98
320.851	393.05
320.926	340.24
321.002	376.98
321.078	390.75
321.154	381.57
321.229	450.45
321.305	390.75
321.381	390.75
321.456	452.74
321.532	356.31
321.608	381.57
321.683	461.93
321.759	393.05
321.835	411.42
321.91	376.98
321.986	383.86
322.061	360.9
322.137	395.34
322.212	464.22
322.288	331.06
322.364	427.49
322.439	420.6
322.515	376.98
322.59	411.42
322.666	422.9
322.741	416.01
322.816	363.2
322.892	358.61
322.967	413.71
323.043	432.08
323.118	434.38
323.193	360.9
323.269	404.53
323.344	395.34
323.42	413.71
323.495	425.19
323.57	406.82
323.646	376.98
323.721	399.94
323.796	432.08
323.871	452.74
323.947	452.74
324.022	372.38
324.097	388.46
324.172	358.61
324.248	406.82
324.323	356.31
324.398	333.35
324.473	370.09
324.548	376.98
324.623	406.82
324.699	409.12
324.774	443.56
324.849	342.54
324.924	422.9
324.999	388.46
325.074	397.64
325.149	379.27
325.224	388.46
325.299	367.79
325.374	393.05
325.449	397.64
325.524	370.09
325.599	337.94
325.674	455.04
325.749	432.08
325.824	397.64
325.899	438.97
325.974	436.67
326.049	452.74
326.124	450.45
326.199	448.15
326.273	376.98
326.348	347.13
326.423	360.9
326.498	413.71
326.573	436.67
326.648	413.71
326.722	441.26
326.797	416.01
326.872	340.24
326.947	406.82
327.021	464.22
327.096	367.79
327.171	434.38
327.245	413.71
327.32	402.23
327.395	434.38
327.47	399.94
327.544	388.46
327.619	491.78
327.693	422.9
327.768	438.97
327.843	397.64
327.917	425.19
327.992	411.42
328.066	427.49
328.141	395.34
328.215	379.27
328.29	425.19
328.364	404.53
328.439	448.15
328.513	441.26
328.588	388.46
328.662	438.97
328.737	404.53
328.811	404.53
328.886	390.75
328.96	374.68
329.035	422.9
329.109	372.38
329.183	363.2
329.258	429.78
329.332	445.86
329.406	409.12
329.481	402.23
329.555	370.09
329.629	367.79
329.704	420.6
329.778	452.74
329.852	399.94
329.926	420.6
330.001	422.9
330.075	427.49
330.149	388.46
330.223	443.56
330.297	404.53
330.372	376.98
330.446	342.54
330.52	471.11
330.594	393.05
330.668	386.16
330.742	441.26
330.816	425.19
330.89	484.89
330.964	386.16
331.038	404.53
331.113	459.63
331.187	429.78
331.261	372.38
331.335	422.9
331.409	395.34
331.483	445.86
331.557	441.26
331.63	443.56
331.704	358.61
331.778	427.49
331.852	351.72
331.926	500.96
332	397.64
332.074	422.9
332.148	434.38
332.222	365.5
332.295	434.38
332.369	388.46
332.443	363.2
332.517	448.15
332.591	432.08
332.665	370.09
332.738	383.86
332.812	438.97
332.886	409.12
332.959	422.9
333.033	429.78
333.107	468.82
333.181	413.71
333.254	416.01
333.328	409.12
333.402	390.75
333.475	413.71
333.549	363.2
333.622	402.23
333.696	351.72
333.77	383.86
333.843	409.12
333.917	406.82
333.99	468.82
334.064	416.01
334.137	409.12
334.211	434.38
334.284	438.97
334.358	441.26
334.431	438.97
334.505	393.05
334.578	429.78
334.652	432.08
334.725	418.3
334.799	358.61
334.872	381.57
334.945	455.04
335.019	409.12
335.092	425.19
335.165	441.26
335.239	425.19
335.312	480.3
335.385	388.46
335.459	480.3
335.532	422.9
335.605	402.23
335.678	411.42
335.752	448.15
335.825	416.01
335.898	464.22
335.971	409.12
336.045	399.94
336.118	450.45
336.191	374.68
336.264	466.52
336.337	370.09
336.41	457.34
336.483	464.22
336.557	459.63
336.63	510.14
336.703	429.78
336.776	482.59
336.849	411.42
336.922	432.08
336.995	452.74
337.068	386.16
337.141	388.46
337.214	390.75
337.287	445.86
337.36	411.42
337.433	409.12
337.506	416.01
337.579	443.56
337.652	438.97
337.725	473.41
337.797	406.82
337.87	370.09
337.943	416.01
338.016	386.16
338.089	388.46
338.162	434.38
338.235	416.01
338.307	425.19
338.38	482.59
338.453	397.64
338.526	393.05
338.598	466.52
338.671	420.6
338.744	406.82
338.817	374.68
338.889	390.75
338.962	473.41
339.035	422.9
339.107	429.78
339.18	399.94
339.253	406.82
339.325	448.15
339.398	413.71
339.47	427.49
339.543	438.97
339.616	443.56
339.688	478
339.761	468.82
339.833	443.56
339.906	395.34
339.978	420.6
340.051	478
340.123	399.94
340.196	416.01
340.268	436.67
340.341	427.49
340.413	459.63
340.485	452.74
340.558	466.52
340.63	402.23
340.703	443.56
340.775	459.63
340.847	406.82
340.92	422.9
340.992	399.94
341.064	438.97
341.137	422.9
341.209	416.01
341.281	427.49
341.354	457.34
341.426	441.26
341.498	441.26
341.57	393.05
341.643	434.38
341.715	399.94
341.787	445.86
341.859	445.86
341.931	432.08
342.003	498.66
342.076	411.42
342.148	489.48
342.22	411.42
342.292	413.71
342.364	466.52
342.436	482.59
342.508	425.19
342.58	418.3
342.652	445.86
342.724	450.45
342.796	429.78
342.868	461.93
342.94	411.42
343.012	480.3
343.084	409.12
343.156	395.34
343.228	425.19
343.3	455.04
343.372	406.82
343.444	494.07
343.516	482.59
343.588	484.89
343.66	388.46
343.731	471.11
343.803	409.12
343.875	484.89
343.947	418.3
344.019	425.19
344.09	434.38
344.162	480.3
344.234	496.37
344.306	434.38
344.377	443.56
344.449	438.97
344.521	438.97
344.593	473.41
344.664	457.34
344.736	466.52
344.808	496.37
344.879	496.37
344.951	498.66
345.023	464.22
345.094	450.45
345.166	464.22
345.237	500.96
345.309	438.97
345.38	461.93
345.452	427.49
345.524	448.15
345.595	448.15
345.667	473.41
345.738	494.07
345.81	416.01
345.881	459.63
345.953	450.45
346.024	457.34
346.095	372.38
346.167	438.97
346.238	478
346.31	542.29
346.381	464.22
346.452	484.89
346.524	473.41
346.595	436.67
346.666	432.08
346.738	494.07
346.809	487.18
346.88	521.62
346.952	457.34
347.023	487.18
347.094	478
347.165	528.51
347.237	496.37
347.308	514.74
347.379	427.49
347.45	519.33
347.521	494.07
347.593	482.59
347.664	473.41
347.735	448.15
347.806	494.07
347.877	455.04
347.948	489.48
348.019	484.89
348.09	510.14
348.161	496.37
348.233	558.36
348.304	471.11
348.375	528.51
348.446	457.34
348.517	468.82
348.588	459.63
348.659	530.81
348.73	471.11
348.801	478
348.871	468.82
348.942	478
349.013	546.88
349.084	494.07
349.155	459.63
349.226	514.74
349.297	505.55
349.368	544.58
349.439	459.63
349.509	537.7
349.58	459.63
349.651	496.37
349.722	480.3
349.793	478
349.863	521.62
349.934	491.78
350.005	496.37
350.076	507.85
350.146	491.78
350.217	468.82
350.288	498.66
350.358	542.29
350.429	503.26
350.5	507.85
350.57	500.96
350.641	530.81
350.711	505.55
350.782	528.51
350.853	558.36
350.923	526.22
350.994	569.84
351.064	528.51
351.135	590.5
351.205	551.47
351.276	613.47
351.346	551.47
351.417	631.83
351.487	585.91
351.558	615.76
351.628	629.54
351.699	643.31
351.769	579.02
351.84	606.58
351.91	620.35
351.98	659.39
352.051	634.13
352.121	620.35
352.191	606.58
352.262	691.53
352.332	670.87
352.402	597.39
352.473	765
352.543	748.93
352.613	801.74
352.683	744.34
352.754	817.81
352.824	774.19
352.894	875.21
352.964	907.35
353.035	845.36
353.105	836.18
353.175	884.39
353.245	870.62
353.315	1001.49
353.385	996.9
353.455	1024.45
353.526	1008.38
353.596	1074.96
353.666	1120.88
353.736	1256.35
353.806	1270.12
353.876	1226.5
353.946	1304.56
354.016	1249.46
354.086	1336.71
354.156	1316.04
354.226	1444.62
354.296	1511.2
354.366	1598.45
354.436	1490.54
354.506	1688
354.576	1821.17
354.645	1839.53
354.715	1795.91
354.785	1945.15
354.855	2057.66
354.925	2092.1
354.995	2069.14
355.065	2211.49
355.134	2383.69
355.204	2420.42
355.274	2599.51
355.344	2684.47
355.414	2549
355.483	2707.43
355.553	2877.33
355.623	3040.35
355.693	2978.35
355.762	3106.93
355.832	3407.71
355.902	3511.03
355.971	3536.29
356.041	3777.37
356.111	3896.76
356.18	3958.75
356.25	4163.1
356.319	4275.6
356.389	4429.43
356.459	4493.72
356.528	4762.35
356.598	4819.75
356.667	5081.5
356.737	5104.46
356.806	5425.9
356.876	5664.69
356.945	5795.56
357.015	5995.31
357.084	6043.53
357.154	6240.98
357.223	6553.24
357.292	6824.17
357.362	7026.22
357.431	7228.27
357.501	7258.12
357.57	7809.16
357.639	7843.6
357.709	8045.65
357.778	8504.85
357.847	8566.84
357.917	8718.38
357.986	9019.16
358.055	9524.28
358.124	9602.34
358.194	9946.74
358.263	10408.24
358.332	10589.63
358.401	10833
358.471	11175.11
358.54	11590.69
358.609	11863.91
358.678	12375.92
358.747	12639.96
358.816	12913.19
358.886	13129.01
358.955	13560.66
359.024	13769.6
359.093	14256.35
359.162	14878.57
359.231	15147.21
359.3	15156.39
359.369	15656.92
359.438	16203.37
359.507	16614.36
359.576	17108
359.645	17502.91
359.714	17799.1
359.783	18398.35
359.852	18575.15
359.921	19328.24
359.99	19668.05
360.059	20058.37
360.128	20519.87
360.197	20822.94
360.266	21814.82
360.334	21782.67
360.403	22501.32
360.472	23123.54
360.541	23339.37
360.61	23757.24
360.679	24462.12
360.747	24999.38
360.816	25320.82
360.885	26172.64
360.954	26404.54
361.022	27049.72
361.091	27626.02
361.16	28227.57
361.228	28865.86
361.297	29100.06
361.366	29951.87
361.434	30587.87
361.503	30663.64
361.572	31662.4
361.64	32041.24
361.709	32509.63
361.778	33074.45
361.846	33848.2
361.915	34507.16
361.983	34922.74
362.052	35951.35
362.12	35825.07
362.189	36849.09
362.257	37409.31
362.326	37854.74
362.394	38502.21
362.463	38775.44
362.531	39815.53
362.6	40169.12
362.668	40818.89
362.737	41588.05
362.805	42499.57
362.873	42602.89
362.942	43096.53
363.01	43718.75
363.079	44081.52
363.147	44637.15
363.215	45360.39
363.284	45440.76
363.352	46271.91
363.42	47045.67
363.488	47112.25
363.557	47720.69
363.625	47899.78
363.693	48462.3
363.761	48590.88
363.83	49777.92
363.898	49814.65
363.966	50505.75
364.034	51031.54
364.102	50967.25
364.171	51426.45
364.239	51890.25
364.307	52388.48
364.375	52866.05
364.443	53118.61
364.511	53504.34
364.579	53929.1
364.647	54165.59
364.715	54262.02
364.783	54700.56
364.851	54911.79
364.919	54861.28
364.987	55334.26
365.055	55290.64
365.123	56124.09
365.191	56252.66
365.259	56323.84
365.327	56422.57
365.395	56682.02
365.463	56964.43
365.531	57194.03
365.599	57194.03
365.667	57609.61
365.735	57276.68
365.802	57729
365.87	57995.34
365.938	57820.84
366.006	58241.01
366.074	58330.55
366.142	58328.26
366.209	58663.47
366.277	58622.15
366.345	58500.46
366.413	58748.43
366.48	58934.4
366.548	59129.56
366.616	59370.64
366.683	59301.76
366.751	59453.3
366.819	59352.28
366.886	59492.33
366.954	59359.16
367.022	59329.32
367.089	59478.56
367.157	59625.5
367.224	59788.52
367.292	59671.42
367.36	59705.86
367.427	59634.69
367.495	59809.18
367.562	59747.19
367.63	59391.31
367.697	59641.57
367.765	59689.79
367.832	59878.06
367.9	59698.97
367.967	59806.89
368.034	59646.17
368.102	59616.32
368.169	59733.41
368.237	59556.62
368.304	59669.13
368.371	59584.17
368.439	59666.83
368.506	59618.61
368.573	59545.14
368.641	59659.94
368.708	59384.42
368.775	59035.43
368.843	59166.3
368.91	59111.2
368.977	58888.48
369.044	59260.44
369.112	59012.47
369.179	58753.02
369.246	58748.43
369.313	58870.11
369.38	58918.33
369.448	58550.97
369.515	58615.26
369.582	58466.02
369.649	58374.18
369.716	58385.66
369.783	58119.32
369.85	58224.94
369.917	58089.47
369.984	57818.54
370.052	57770.33
370.119	57738.18
370.186	57625.68
370.253	57432.81
370.32	57357.04
370.387	57155
370.454	56941.47
370.521	56911.62
370.587	56764.67
370.654	56502.93
370.721	56401.9
370.788	56238.89
370.855	56004.69
370.922	56064.39
370.989	55997.81
371.056	56016.17
371.123	55437.58
371.189	55738.36
371.256	55290.64
371.323	55230.94
371.39	54748.78
371.457	54826.84
371.523	54567.39
371.59	54532.95
371.657	54691.38
371.724	54239.06
371.79	54181.66
371.857	54312.54
371.924	53832.67
371.991	53492.86
372.057	53327.55
372.124	53297.7
372.191	53437.76
372.257	53325.25
372.324	52673.19
372.39	52769.62
372.457	52402.26
372.524	52131.33
372.59	51933.87
372.657	51699.68
372.723	51403.49
372.79	51059.09
372.856	51460.89
372.923	51123.38
372.989	50744.54
373.056	50260.08
373.122	50152.17
373.189	50230.23
373.255	50211.86
373.322	49619.49
373.388	49504.69
373.454	49309.53
373.521	49063.86
373.587	49151.11
373.654	48666.65
373.72	47791.87
373.786	47959.48
373.853	47805.64
373.919	48147.75
373.985	47454.36
374.052	47114.55
374.118	46503.81
374.184	46767.85
374.25	46198.44
374.317	46205.33
374.383	45594.59
374.449	45734.64
374.515	45404.02
374.581	44793.28
374.648	45020.59
374.714	44430.51
374.78	43881.76
374.846	43036.83
374.912	43333.02
374.978	43068.98
375.044	43114.9
375.11	43046.02
375.177	42426.09
375.243	42327.37
375.309	41992.15
375.375	41367.63
375.441	41337.79
375.507	41193.14
375.573	40694.9
375.639	40440.05
375.705	39751.24
375.771	39790.28
375.837	39076.22
375.903	39101.47
375.968	38837.43
376.034	38323.13
376.1	38084.34
376.166	38040.72
376.232	37574.63
376.298	37168.23
376.364	37044.25
376.43	36989.14
376.495	35850.32
376.561	35425.56
376.627	35854.92
376.693	35453.11
376.759	34938.81
376.824	34925.03
376.89	34732.17
376.956	34100.76
377.022	34057.14
377.087	33781.62
377.153	33411.96
377.219	32893.06
377.284	32645.09
377.35	32270.84
377.416	31751.95
377.481	31731.28
377.547	31485.61
377.613	31122.84
377.678	30808.29
377.744	30424.85
377.809	29889.88
377.875	29680.95
377.94	29825.59
378.006	29203.38
378.071	29054.14
378.137	28964.59
378.202	28728.1
378.268	28312.52
378.333	28025.52
378.399	27692.6
378.464	27575.5
378.53	27180.59
378.595	27185.18
378.661	26466.53
378.726	26540
378.791	26236.93
378.857	26145.09
378.922	25858.09
378.987	25435.62
379.053	25261.13
379.118	24912.13
379.183	24342.72
379.249	24294.51
379.314	24202.67
379.379	24156.75
379.444	24000.62
379.51	23835.31
379.575	23412.84
379.64	22958.23
379.705	22870.98
379.771	22696.48
379.836	22338.31
379.901	22062.79
379.966	22262.54
380.031	21814.82
380.096	21649.5
380.161	21511.74
380.227	21259.18
380.292	21197.19
380.357	20905.6
380.422	20593.34
380.487	20418.84
380.552	20251.23
380.617	20150.21
380.682	20037.71
380.747	19936.68
380.812	19257.06
380.877	19672.64
380.942	19167.52
381.007	18956.29
381.072	18565.96
381.137	18561.37
381.202	18588.92
381.266	18281.26
381.331	18166.46
381.396	17893.23
381.461	17734.81
381.526	17514.39
381.591	17314.64
381.656	17225.09
381.72	17020.75
381.785	16880.69
381.85	16609.76
381.915	16497.26
381.979	16469.71
382.044	16175.82
382.109	16334.24
382.174	15969.18
382.238	15712.02
382.303	15904.89
382.368	15574.26
382.432	15216.09
382.497	15250.53
382.562	14915.31
382.626	15200.01
382.691	14924.49
382.756	14704.08
382.82	14476.77
382.885	14405.59
382.949	14318.35
383.014	14180.59
383.078	14111.71
383.143	13934.91
383.208	13641.02
383.272	13418.31
383.337	13418.31
383.401	13273.66
383.465	13158.86
383.53	12929.26
383.594	13083.09
383.659	12559.6
383.723	12777.72
383.788	12545.83
383.852	12545.83
383.916	12309.34
383.981	12369.03
384.045	12194.54
384.109	12082.03
384.174	11801.92
384.238	11721.56
384.302	11696.3
384.367	11452.93
384.431	11381.75
384.495	11131.48
384.56	11381.75
384.624	11115.41
384.688	11099.34
384.752	10784.79
384.816	10607.99
384.881	10467.94
384.945	10449.57
385.009	10412.83
385.073	10426.61
385.137	10116.65
385.201	9988.07
385.265	9887.05
385.33	10011.03
385.394	9825.06
385.458	10008.74
385.522	9567.9
385.586	9540.35
385.65	9547.24
385.714	9313.05
385.778	9147.73
385.842	9294.68
385.906	9124.77
385.97	9049
386.034	8817.11
386.098	8748.23
386.162	8762
386.226	8470.41
386.29	8525.51
386.354	8518.63
386.417	8300.5
386.481	8307.39
386.545	8268.36
386.609	8167.34
386.673	8052.54
386.737	7912.48
386.8	7836.71
386.864	7809.16
386.928	7574.97
386.992	7715.02
387.056	7423.43
387.119	7391.29
387.183	7483.13
387.247	7232.86
387.31	7150.2
387.374	7028.52
387.438	7062.96
387.502	6989.48
387.565	6844.83
387.629	6881.57
387.692	6821.87
387.756	6608.35
387.82	6617.53
387.883	6509.62
387.947	6417.78
388.01	6378.74
388.074	6266.24
388.138	6188.18
388.201	6144.55
388.265	5956.28
388.328	5990.72
388.392	5944.8
388.455	5905.77
388.519	5896.58
388.582	5811.63
388.645	5747.34
388.709	5559.07
388.772	5644.02
388.836	5671.57
388.899	5487.89
388.962	5529.22
389.026	5375.39
389.089	5278.96
389.153	5416.72
389.216	5297.32
389.279	5262.88
389.343	5136.6
389.406	5014.92
389.469	5001.14
389.532	4913.89
389.596	4900.11
389.659	4856.49
389.722	4707.25
389.785	4695.77
389.848	4716.43
389.912	4613.11
389.975	4642.96
390.038	4470.76
390.101	4521.27
390.164	4438.62
390.227	4337.59
390.291	4213.61
390.354	4248.05
390.417	4305.45
390.48	4282.49
390.543	4176.87
390.606	4046
390.669	4085.03
390.732	3935.79
390.795	4057.48
390.858	3954.16
390.921	4006.97
390.984	3853.13
391.047	3759
391.11	3788.85
391.173	3708.49
391.236	3676.34
391.299	3736.04
391.362	3671.75
391.424	3657.97
391.487	3591.39
391.55	3589.09
391.613	3458.22
391.676	3522.51
391.739	3432.96
391.802	3430.67
391.864	3421.48
391.927	3299.8
391.99	3308.98
392.053	3348.01
392.115	3217.14
392.178	3217.14
392.241	3134.48
392.304	3258.47
392.366	3162.04
392.429	3166.63
392.492	3028.87
392.554	2941.62
392.617	3067.9
392.68	2969.17
392.742	2985.24
392.805	2966.87
392.867	2836
392.93	2838.3
392.992	2836
393.055	2833.71
393.118	2774.01
393.18	2783.19
393.243	2893.4
393.305	2769.42
393.368	2698.24
393.43	2599.51
393.493	2599.51
393.555	2599.51
393.618	2523.74
393.68	2530.63
393.742	2544.41
393.805	2484.71
393.867	2535.23
393.93	2480.12
393.992	2468.64
394.054	2392.87
394.117	2436.5
394.179	2443.38
394.241	2337.77
394.304	2360.73
394.366	2303.33
394.428	2298.74
394.49	2287.26
394.553	2193.12
394.615	2245.93
394.677	2301.03
394.739	2147.2
394.802	2204.6
394.864	2218.38
394.926	2211.49
394.988	2128.83
395.05	2117.35
395.112	1975
395.174	2151.79
395.237	2098.98
395.299	2085.21
395.361	2059.95
395.423	1997.96
395.485	1922.19
395.547	1890.05
395.609	1901.53
395.671	1913.01
395.733	1899.23
395.795	1871.68
395.857	1919.89
395.919	1818.87
395.981	1853.31
396.043	1878.57
396.105	1864.79
396.167	1860.2
396.229	1736.21
396.291	1828.05
396.352	1761.47
396.414	1772.95
396.476	1715.55
396.538	1685.7
396.6	1745.4
396.662	1671.93
396.724	1580.09
396.785	1635.19
396.847	1628.3
396.909	1658.15
396.971	1658.15
397.032	1561.72
397.094	1570.9
397.156	1577.79
397.218	1600.75
397.279	1541.05
397.341	1479.06
397.403	1566.31
397.464	1460.69
397.526	1545.64
397.588	1419.36
397.649	1515.8
397.711	1536.46
397.772	1506.61
397.834	1485.95
397.896	1435.44
397.957	1423.96
398.019	1458.4
398.08	1382.63
398.142	1396.4
398.203	1389.52
398.265	1272.42
398.326	1309.16
398.388	1343.6
398.449	1281.6
398.511	1361.96
398.572	1306.86
398.633	1320.64
398.695	1274.72
398.756	1283.9
398.818	1228.8
398.879	1242.57
398.94	1240.28
399.002	1267.83
399.063	1203.54
399.124	1226.5
399.186	1228.8
399.247	1175.99
399.308	1175.99
399.369	1139.25
399.431	1182.88
399.492	1194.36
399.553	1171.4
399.614	1166.8
399.676	1134.66
399.737	1175.99
399.798	1130.07
399.859	1118.59
399.92	1038.23
399.981	1123.18
400.042	1088.74
400.104	1042.82
400.165	1056.59
400.226	1125.48
400.287	1146.14
400.348	1136.96
400.409	1114
400.47	1061.19
400.531	1109.4
400.592	1038.23
400.653	941.79
400.714	1008.38
400.775	971.64
400.836	1065.78
400.897	1033.63
400.958	1026.75
401.019	1033.63
401.08	978.53
401.141	1019.86
401.201	939.5
401.262	918.83
401.323	967.05
401.384	957.87
401.445	987.71
401.506	994.6
401.567	882.1
401.627	967.05
401.688	888.99
401.749	898.17
401.81	911.95
401.87	854.55
401.931	884.39
401.992	882.1
402.053	983.12
402.113	824.7
402.174	895.87
402.235	820.11
402.295	918.83
402.356	822.4
402.417	817.81
402.477	833.88
402.538	843.07
402.598	932.61
402.659	847.66
402.719	836.18
402.78	748.93
402.841	771.89
402.901	856.84
402.962	806.33
403.022	785.67
403.083	861.43
403.143	771.89
403.204	824.7
403.264	877.51
403.324	829.29
403.385	716.79
403.445	859.14
403.506	813.22
403.566	783.37
403.627	778.78
403.687	790.26
403.747	820.11
403.808	705.31
403.868	682.35
403.928	758.11
403.989	758.11
404.049	833.88
404.109	707.6
404.169	700.71
404.23	673.16
404.29	755.82
404.35	721.38
404.41	739.75
404.47	732.86
404.531	673.16
404.591	737.45
404.651	691.53
404.711	742.04
404.771	680.05
404.831	705.31
404.892	682.35
404.952	719.08
405.012	675.46
405.072	615.76
405.132	735.15
405.192	765
405.252	613.47
405.312	627.24
405.372	748.93
405.432	712.19
405.492	631.83
405.552	638.72
405.612	654.79
405.672	650.2
405.732	631.83
405.792	647.91
405.852	622.65
405.912	668.57
405.971	601.98
406.031	601.98
406.091	645.61
406.151	638.72
406.211	574.43
406.271	673.16
406.33	627.24
406.39	654.79
406.45	590.5
406.51	668.57
406.57	613.47
406.629	517.03
406.689	530.81
406.749	590.5
406.808	537.7
406.868	579.02
406.928	549.18
406.988	588.21
407.047	590.5
407.107	585.91
407.166	643.31
407.226	624.95
407.286	606.58
407.345	608.87
407.405	565.25
407.464	615.76
407.524	551.47
407.584	579.02
407.643	622.65
407.703	549.18
407.762	652.5
407.822	574.43
407.881	546.88
407.941	569.84
408	588.21
408.059	565.25
408.119	539.99
408.178	558.36
408.238	546.88
408.297	510.14
408.356	544.58
408.416	569.84
408.475	542.29
408.535	627.24
408.594	595.1
408.653	526.22
408.712	537.7
408.772	579.02
408.831	599.69
408.89	500.96
408.95	567.54
409.009	558.36
409.068	523.92
409.127	590.5
409.186	544.58
409.246	551.47
409.305	583.62
409.364	624.95
409.423	512.44
409.482	539.99
409.541	533.1
409.6	526.22
409.66	519.33
409.719	491.78
409.778	556.06
409.837	588.21
409.896	484.89
409.955	526.22
410.014	494.07
410.073	512.44
410.132	523.92
410.191	533.1
410.25	530.81
410.309	537.7
410.368	592.8
410.427	482.59
410.486	556.06
410.545	542.29
410.603	512.44
410.662	498.66
410.721	539.99
410.78	553.77
410.839	441.26
410.898	500.96
410.957	553.77
411.015	436.67
411.074	512.44
411.133	510.14
411.192	526.22
411.25	521.62
411.309	466.52
411.368	505.55
411.427	416.01
411.485	438.97
411.544	478
411.603	491.78
411.661	482.59
411.72	471.11
411.779	441.26
411.837	427.49
411.896	489.48
411.955	484.89
412.013	475.7
412.072	473.41
412.13	489.48
412.189	507.85
412.247	496.37
412.306	436.67
412.364	461.93
412.423	521.62
412.481	438.97
412.54	450.45
412.598	526.22
412.657	461.93
412.715	482.59
412.774	468.82
412.832	514.74
412.891	438.97
412.949	471.11
413.007	489.48
413.066	464.22
413.124	450.45
413.182	496.37
413.241	448.15
413.299	507.85
413.357	438.97
413.416	436.67
413.474	491.78
413.532	546.88
413.59	466.52
413.649	478
413.707	429.78
413.765	461.93
413.823	416.01
413.881	427.49
413.94	427.49
413.998	445.86
414.056	443.56
414.114	452.74
414.172	517.03
414.23	397.64
414.288	452.74
414.347	443.56
414.405	406.82
414.463	360.9
414.521	416.01
414.579	471.11
414.637	512.44
414.695	406.82
414.753	393.05
414.811	452.74
414.869	434.38
414.927	464.22
414.985	434.38
415.043	409.12
415.101	397.64
415.158	471.11
415.216	438.97
415.274	448.15
415.332	438.97
415.39	393.05
415.448	438.97
415.506	459.63
415.563	422.9
415.621	432.08
415.679	468.82
415.737	386.16
415.795	468.82
415.852	468.82
415.91	418.3
415.968	422.9
416.026	482.59
416.083	372.38
416.141	422.9
416.199	370.09
416.256	413.71
416.314	356.31
416.372	484.89
416.429	432.08
416.487	452.74
416.544	455.04
416.602	418.3
416.66	432.08
416.717	413.71
416.775	457.34
416.832	420.6
416.89	448.15
416.947	468.82
417.005	468.82
417.062	413.71
417.12	432.08
417.177	390.75
417.235	413.71
417.292	363.2
417.35	386.16
417.407	432.08
417.464	457.34
417.522	409.12
417.579	429.78
417.637	344.83
417.694	340.24
417.751	390.75
417.809	388.46
417.866	372.38
417.923	397.64
417.981	363.2
418.038	416.01
418.095	420.6
418.152	420.6
418.21	438.97
418.267	429.78
418.324	365.5
418.381	441.26
418.438	390.75
418.496	358.61
418.553	363.2
418.61	390.75
418.667	395.34
418.724	397.64
418.781	418.3
418.838	383.86
418.895	379.27
418.952	464.22
419.01	434.38
419.067	301.21
419.124	381.57
419.181	411.42
419.238	411.42
419.295	310.39
419.352	381.57
419.409	443.56
419.466	399.94
419.523	349.42
419.579	413.71
419.636	393.05
419.693	406.82
419.75	411.42
419.807	372.38
419.864	386.16
419.921	376.98
419.978	411.42
420.034	422.9
420.091	411.42
420.148	386.16
420.205	331.06
420.262	354.02
420.318	427.49
420.375	450.45
420.432	381.57
420.489	441.26
420.545	406.82
420.602	434.38
420.659	409.12
420.715	406.82
420.772	354.02
420.829	434.38
420.885	406.82
420.942	416.01
420.999	365.5
421.055	379.27
421.112	425.19
421.168	393.05
421.225	351.72
421.282	367.79
421.338	365.5
421.395	328.76
421.451	376.98
421.508	443.56
421.564	455.04
421.621	376.98
421.677	349.42
421.734	363.2
421.79	370.09
421.846	402.23
421.903	409.12
421.959	487.18
422.016	383.86
422.072	328.76
422.128	404.53
422.185	365.5
422.241	399.94
422.297	358.61
422.354	432.08
422.41	358.61
422.466	358.61
422.523	370.09
422.579	386.16
422.635	399.94
422.691	376.98
422.748	344.83
422.804	416.01
422.86	422.9
422.916	342.54
422.972	404.53
423.029	324.17
423.085	356.31
423.141	340.24
423.197	379.27
423.253	432.08
423.309	425.19
423.365	404.53
423.421	386.16
423.477	314.98
423.533	367.79
423.589	374.68
423.645	335.65
423.701	496.37
423.757	388.46
423.813	404.53
423.869	409.12
423.925	434.38
423.981	455.04
424.037	448.15
424.093	395.34
424.149	411.42
424.205	333.35
424.261	324.17
424.317	335.65
424.373	367.79
424.428	404.53
424.484	374.68
424.54	388.46
424.596	406.82
424.652	404.53
424.708	413.71
424.763	404.53
424.819	319.58
424.875	374.68
424.931	404.53
424.986	354.02
425.042	445.86
425.098	381.57
425.153	432.08
425.209	381.57
425.265	443.56
425.32	388.46
425.376	452.74
425.432	381.57
425.487	388.46
425.543	452.74
425.598	397.64
425.654	397.64
425.709	379.27
425.765	314.98
425.82	425.19
425.876	319.58
425.932	342.54
425.987	324.17
426.042	374.68
426.098	365.5
426.153	404.53
426.209	416.01
426.264	416.01
426.32	436.67
426.375	418.3
426.43	422.9
426.486	429.78
426.541	342.54
426.597	365.5
426.652	310.39
426.707	395.34
426.763	404.53
426.818	365.5
426.873	358.61
426.928	395.34
426.984	349.42
427.039	432.08
427.094	399.94
427.149	312.69
427.205	395.34
427.26	404.53
427.315	354.02
427.37	416.01
427.425	363.2
427.48	409.12
427.536	335.65
427.591	365.5
427.646	360.9
427.701	333.35
427.756	337.94
427.811	383.86
427.866	376.98
427.921	406.82
427.976	374.68
428.031	367.79
428.086	395.34
428.141	331.06
428.196	365.5
428.251	358.61
428.306	399.94
428.361	349.42
428.416	349.42
428.471	409.12
428.526	372.38
428.581	434.38
428.636	317.28
428.691	395.34
428.745	365.5
428.8	342.54
428.855	301.21
428.91	365.5
428.965	450.45
429.02	381.57
429.074	370.09
429.129	344.83
429.184	459.63
429.239	432.08
429.293	434.38
429.348	383.86
429.403	365.5
429.457	413.71
429.512	409.12
429.567	383.86
429.621	441.26
429.676	386.16
429.731	381.57
429.785	416.01
429.84	367.79
429.895	317.28
429.949	354.02
430.004	365.5
430.058	337.94
430.113	395.34
430.167	370.09
430.222	406.82
430.276	427.49
430.331	381.57
430.385	381.57
430.44	379.27
430.494	347.13
430.549	356.31
430.603	365.5
430.657	397.64
430.712	379.27
430.766	413.71
430.821	386.16
430.875	344.83
430.929	388.46
430.984	397.64
431.038	413.71
431.092	441.26
431.147	411.42
431.201	356.31
431.255	305.8
431.309	372.38
431.364	308.1
431.418	390.75
431.472	344.83
431.526	328.76
431.581	337.94
431.635	365.5
431.689	333.35
431.743	351.72
431.797	381.57
431.851	354.02
431.906	409.12
431.96	420.6
432.014	388.46
432.068	301.21
432.122	333.35
432.176	379.27
432.23	335.65
432.284	351.72
432.338	399.94
432.392	374.68
432.446	379.27
432.5	406.82
432.554	416.01
432.608	420.6
432.662	349.42
432.716	388.46
432.77	360.9
432.824	370.09
432.878	308.1
432.931	390.75
432.985	406.82
433.039	374.68
433.093	328.76
433.147	397.64
433.201	383.86
433.254	397.64
433.308	399.94
433.362	395.34
433.416	370.09
433.47	395.34
433.523	356.31
433.577	416.01
433.631	367.79
433.684	292.02
433.738	390.75
433.792	399.94
433.846	416.01
433.899	376.98
433.953	344.83
434.006	379.27
434.06	356.31
434.114	365.5
434.167	365.5
434.221	365.5
