Data from FLMS155811_13-51-15-744.txt Node
Date: Tue Dec 31 13:51:15 MST 2019
User: ECEn Student
Spectrometer: FLMS15581
Trigger mode: 0
Integration Time (sec): 1.000000E-1
Scans to average: 1
Electric dark correction enabled: true
Nonlinearity correction enabled: false
Boxcar width: 0
XAxis mode: Wavelengths
Number of Pixels in Spectrum: 2048
>>>>>Begin Spectral Data<<<<<
298.026	-1.44
298.106	-1.44
298.185	-1.44
298.265	-68.02
298.344	-68.02
298.424	-56.54
298.503	-132.31
298.583	-86.39
298.662	-58.84
298.741	-86.39
298.821	-38.17
298.9	-68.02
298.98	-3.73
299.059	14.64
299.138	23.82
299.217	16.93
299.297	14.64
299.376	69.74
299.455	92.7
299.535	115.66
299.614	182.25
299.693	111.07
299.772	175.36
299.852	159.29
299.931	161.58
300.01	246.53
300.089	260.31
300.168	310.82
300.247	290.16
300.327	280.97
300.406	301.64
300.485	280.97
300.564	301.64
300.643	326.89
300.722	409.55
300.801	310.82
300.88	345.26
300.959	411.85
301.038	354.45
301.117	372.81
301.196	425.62
301.275	372.81
301.354	430.21
301.433	382
301.512	404.96
301.591	368.22
301.67	395.77
301.749	398.07
301.828	363.63
301.907	421.03
301.985	375.11
302.064	416.44
302.143	382
302.222	372.81
302.301	356.74
302.38	365.93
302.458	437.1
302.537	372.81
302.616	354.45
302.695	430.21
302.773	411.85
302.852	400.37
302.931	432.51
303.01	418.73
303.088	384.29
303.167	352.15
303.246	386.59
303.324	453.17
303.403	349.85
303.481	365.93
303.56	423.33
303.639	434.81
303.717	359.04
303.796	416.44
303.874	356.74
303.953	411.85
304.032	441.69
304.11	356.74
304.189	345.26
304.267	356.74
304.346	356.74
304.424	356.74
304.502	356.74
304.581	308.53
304.659	315.41
304.738	329.19
304.816	365.93
304.895	338.37
304.973	368.22
305.051	414.14
305.13	375.11
305.208	333.78
305.286	356.74
305.365	356.74
305.443	333.78
305.521	320.01
305.6	377.41
305.678	407.25
305.756	393.48
305.834	354.45
305.913	393.48
305.991	324.6
306.069	336.08
306.147	310.82
306.225	427.92
306.304	439.4
306.382	386.59
306.46	372.81
306.538	365.93
306.616	377.41
306.694	443.99
306.772	425.62
306.85	363.63
306.929	347.56
307.007	416.44
307.085	391.18
307.163	400.37
307.241	400.37
307.319	379.7
307.397	317.71
307.475	409.55
307.553	404.96
307.631	340.67
307.709	395.77
307.786	427.92
307.864	372.81
307.942	416.44
308.02	301.64
308.098	370.52
308.176	372.81
308.254	326.89
308.332	336.08
308.409	361.33
308.487	377.41
308.565	368.22
308.643	377.41
308.721	418.73
308.798	400.37
308.876	375.11
308.954	342.97
309.032	398.07
309.109	363.63
309.187	391.18
309.265	329.19
309.342	395.77
309.42	349.85
309.498	368.22
309.575	423.33
309.653	338.37
309.731	365.93
309.808	342.97
309.886	434.81
309.963	338.37
310.041	297.05
310.119	342.97
310.196	423.33
310.274	359.04
310.351	365.93
310.429	359.04
310.506	377.41
310.584	370.52
310.661	416.44
310.738	370.52
310.816	411.85
310.893	379.7
310.971	368.22
311.048	340.67
311.126	349.85
311.203	342.97
311.28	391.18
311.358	342.97
311.435	398.07
311.512	393.48
311.59	331.49
311.667	336.08
311.744	372.81
311.821	455.47
311.899	407.25
311.976	365.93
312.053	386.59
312.13	391.18
312.208	336.08
312.285	404.96
312.362	329.19
312.439	320.01
312.516	349.85
312.593	427.92
312.671	411.85
312.748	425.62
312.825	365.93
312.902	421.03
312.979	404.96
313.056	375.11
313.133	354.45
313.21	365.93
313.287	301.64
313.364	379.7
313.441	421.03
313.518	395.77
313.595	379.7
313.672	466.95
313.749	303.93
313.826	352.15
313.903	375.11
313.98	372.81
314.057	338.37
314.134	421.03
314.211	418.73
314.287	393.48
314.364	418.73
314.441	411.85
314.518	411.85
314.595	336.08
314.672	402.66
314.748	409.55
314.825	393.48
314.902	480.73
314.979	363.63
315.055	398.07
315.132	446.29
315.209	398.07
315.286	437.1
315.362	400.37
315.439	354.45
315.516	483.02
315.592	372.81
315.669	395.77
315.746	377.41
315.822	382
315.899	400.37
315.975	400.37
316.052	421.03
316.128	421.03
316.205	363.63
316.282	400.37
316.358	455.47
316.435	411.85
316.511	411.85
316.588	414.14
316.664	464.65
316.741	423.33
316.817	388.89
316.893	388.89
316.97	379.7
317.046	455.47
317.123	388.89
317.199	437.1
317.275	372.81
317.352	414.14
317.428	377.41
317.504	437.1
317.581	368.22
317.657	395.77
317.733	393.48
317.81	421.03
317.886	372.81
317.962	448.58
318.038	448.58
318.115	448.58
318.191	402.66
318.267	404.96
318.343	411.85
318.419	443.99
318.496	356.74
318.572	416.44
318.648	347.56
318.724	453.17
318.8	437.1
318.876	342.97
318.952	409.55
319.028	393.48
319.105	377.41
319.181	409.55
319.257	418.73
319.333	400.37
319.409	402.66
319.485	416.44
319.561	441.69
319.637	418.73
319.713	409.55
319.789	347.56
319.865	382
319.94	388.89
320.016	455.47
320.092	423.33
320.168	434.81
320.244	377.41
320.32	386.59
320.396	432.51
320.472	425.62
320.547	423.33
320.623	342.97
320.699	365.93
320.775	365.93
320.851	354.45
320.926	411.85
321.002	395.77
321.078	421.03
321.154	434.81
321.229	423.33
321.305	457.77
321.381	398.07
321.456	462.36
321.532	446.29
321.608	443.99
321.683	402.66
321.759	404.96
321.835	391.18
321.91	377.41
321.986	363.63
322.061	393.48
322.137	421.03
322.212	409.55
322.288	476.13
322.364	404.96
322.439	333.78
322.515	379.7
322.59	437.1
322.666	379.7
322.741	375.11
322.816	432.51
322.892	409.55
322.967	464.65
323.043	391.18
323.118	439.4
323.193	421.03
323.269	418.73
323.344	404.96
323.42	423.33
323.495	361.33
323.57	416.44
323.646	432.51
323.721	421.03
323.796	462.36
323.871	427.92
323.947	354.45
324.022	471.54
324.097	480.73
324.172	395.77
324.248	395.77
324.323	400.37
324.398	377.41
324.473	460.06
324.548	388.89
324.623	402.66
324.699	450.88
324.774	411.85
324.849	430.21
324.924	427.92
324.999	425.62
325.074	489.91
325.149	434.81
325.224	430.21
325.299	400.37
325.374	377.41
325.449	492.21
325.524	404.96
325.599	402.66
325.674	427.92
325.749	443.99
325.824	432.51
325.899	384.29
325.974	480.73
326.049	391.18
326.124	382
326.199	352.15
326.273	398.07
326.348	418.73
326.423	404.96
326.498	446.29
326.573	432.51
326.648	404.96
326.722	368.22
326.797	379.7
326.872	487.62
326.947	398.07
327.021	430.21
327.096	457.77
327.171	469.25
327.245	434.81
327.32	363.63
327.395	448.58
327.47	407.25
327.544	466.95
327.619	446.29
327.693	441.69
327.768	439.4
327.843	446.29
327.917	407.25
327.992	363.63
328.066	356.74
328.141	407.25
328.215	432.51
328.29	400.37
328.364	423.33
328.439	393.48
328.513	372.81
328.588	466.95
328.662	395.77
328.737	434.81
328.811	393.48
328.886	441.69
328.96	430.21
329.035	398.07
329.109	363.63
329.183	384.29
329.258	393.48
329.332	448.58
329.406	409.55
329.481	409.55
329.555	393.48
329.629	439.4
329.704	365.93
329.778	372.81
329.852	423.33
329.926	393.48
330.001	430.21
330.075	407.25
330.149	483.02
330.223	425.62
330.297	471.54
330.372	425.62
330.446	501.39
330.52	382
330.594	460.06
330.668	460.06
330.742	441.69
330.816	427.92
330.89	414.14
330.964	421.03
331.038	411.85
331.113	402.66
331.187	464.65
331.261	439.4
331.335	375.11
331.409	384.29
331.483	379.7
331.557	437.1
331.63	411.85
331.704	375.11
331.778	494.5
331.852	487.62
331.926	437.1
332	443.99
332.074	453.17
332.148	480.73
332.222	393.48
332.295	404.96
332.369	450.88
332.443	386.59
332.517	391.18
332.591	453.17
332.665	439.4
332.738	434.81
332.812	476.13
332.886	464.65
332.959	437.1
333.033	439.4
333.107	423.33
333.181	430.21
333.254	409.55
333.328	460.06
333.402	384.29
333.475	434.81
333.549	356.74
333.622	441.69
333.696	485.32
333.77	453.17
333.843	450.88
333.917	494.5
333.99	485.32
334.064	425.62
334.137	441.69
334.211	375.11
334.284	425.62
334.358	462.36
334.431	423.33
334.505	430.21
334.578	407.25
334.652	437.1
334.725	460.06
334.799	402.66
334.872	466.95
334.945	427.92
335.019	446.29
335.092	434.81
335.165	407.25
335.239	453.17
335.312	450.88
335.385	478.43
335.459	427.92
335.532	427.92
335.605	423.33
335.678	448.58
335.752	499.1
335.825	483.02
335.898	492.21
335.971	421.03
336.045	425.62
336.118	423.33
336.191	446.29
336.264	441.69
336.337	471.54
336.41	469.25
336.483	384.29
336.557	432.51
336.63	457.77
336.703	423.33
336.776	398.07
336.849	480.73
336.922	430.21
336.995	411.85
337.068	425.62
337.141	460.06
337.214	372.81
337.287	421.03
337.36	425.62
337.433	368.22
337.506	402.66
337.579	423.33
337.652	443.99
337.725	432.51
337.797	430.21
337.87	457.77
337.943	430.21
338.016	414.14
338.089	425.62
338.162	485.32
338.235	379.7
338.307	425.62
338.38	430.21
338.453	441.69
338.526	508.28
338.598	450.88
338.671	427.92
338.744	416.44
338.817	512.87
338.889	441.69
338.962	466.95
339.035	432.51
339.107	446.29
339.18	457.77
339.253	430.21
339.325	388.89
339.398	425.62
339.47	460.06
339.543	407.25
339.616	416.44
339.688	487.62
339.761	473.84
339.833	448.58
339.906	492.21
339.978	473.84
340.051	393.48
340.123	464.65
340.196	443.99
340.268	496.8
340.341	455.47
340.413	434.81
340.485	450.88
340.558	487.62
340.63	453.17
340.703	450.88
340.775	418.73
340.847	434.81
340.92	453.17
340.992	450.88
341.064	499.1
341.137	437.1
341.209	519.76
341.281	483.02
341.354	434.81
341.426	441.69
341.498	432.51
341.57	473.84
341.643	547.31
341.715	446.29
341.787	489.91
341.859	471.54
341.931	427.92
342.003	437.1
342.076	492.21
342.148	505.98
342.22	418.73
342.292	473.84
342.364	469.25
342.436	418.73
342.508	466.95
342.58	487.62
342.652	483.02
342.724	480.73
342.796	441.69
342.868	480.73
342.94	416.44
343.012	404.96
343.084	515.17
343.156	443.99
343.228	505.98
343.3	441.69
343.372	453.17
343.444	471.54
343.516	418.73
343.588	462.36
343.66	545.02
343.731	524.35
343.803	483.02
343.875	437.1
343.947	492.21
344.019	437.1
344.09	448.58
344.162	464.65
344.234	464.65
344.306	460.06
344.377	464.65
344.449	480.73
344.521	400.37
344.593	455.47
344.664	476.13
344.736	464.65
344.808	538.13
344.879	427.92
344.951	446.29
345.023	457.77
345.094	414.14
345.166	483.02
345.237	473.84
345.309	524.35
345.38	517.46
345.452	462.36
345.524	469.25
345.595	446.29
345.667	421.03
345.738	473.84
345.81	372.81
345.881	462.36
345.953	473.84
346.024	508.28
346.095	505.98
346.167	492.21
346.238	460.06
346.31	446.29
346.381	464.65
346.452	494.5
346.524	483.02
346.595	494.5
346.666	533.54
346.738	510.58
346.809	476.13
346.88	483.02
346.952	489.91
347.023	471.54
347.094	473.84
347.165	462.36
347.237	496.8
347.308	533.54
347.379	510.58
347.45	469.25
347.521	455.47
347.593	443.99
347.664	466.95
347.735	483.02
347.806	466.95
347.877	469.25
347.948	483.02
348.019	499.1
348.09	427.92
348.161	512.87
348.233	526.65
348.304	446.29
348.375	492.21
348.446	496.8
348.517	554.2
348.588	460.06
348.659	528.94
348.73	437.1
348.801	439.4
348.871	478.43
348.942	535.83
349.013	473.84
349.084	441.69
349.155	581.75
349.226	453.17
349.297	455.47
349.368	496.8
349.439	517.46
349.509	538.13
349.58	487.62
349.651	432.51
349.722	439.4
349.793	510.58
349.863	473.84
349.934	485.32
350.005	503.69
350.076	480.73
350.146	515.17
350.217	579.46
350.288	508.28
350.358	499.1
350.429	478.43
350.5	535.83
350.57	512.87
350.641	538.13
350.711	519.76
350.782	499.1
350.853	524.35
350.923	531.24
350.994	611.6
351.064	547.31
351.135	464.65
351.205	595.53
351.276	512.87
351.346	551.9
351.417	597.82
351.487	538.13
351.558	567.98
351.628	600.12
351.699	590.94
351.769	618.49
351.84	611.6
351.91	623.08
351.98	657.52
352.051	620.78
352.121	607.01
352.191	643.74
352.262	655.22
352.332	597.82
352.402	579.46
352.473	650.63
352.543	710.33
352.613	698.85
352.683	678.18
352.754	669
352.824	650.63
352.894	671.3
352.964	710.33
353.035	678.18
353.105	774.62
353.175	714.92
353.245	820.54
353.315	836.61
353.385	838.9
353.455	864.16
353.526	903.19
353.596	896.3
353.666	866.46
353.736	854.98
353.806	939.93
353.876	933.04
353.946	1061.62
354.016	1066.21
354.086	1073.1
354.156	1052.43
354.226	1135.09
354.296	1167.23
354.366	1233.82
354.436	1197.08
354.506	1194.79
354.576	1327.95
354.645	1330.25
354.715	1369.28
354.785	1396.83
354.855	1458.83
354.925	1543.78
354.995	1569.04
355.065	1596.59
355.134	1729.76
355.204	1743.53
355.274	1660.88
355.344	1821.6
355.414	1922.62
355.483	2012.17
355.553	2037.42
355.623	2064.97
355.693	2218.81
355.762	2214.21
355.832	2299.17
355.902	2446.11
355.971	2464.48
356.041	2521.88
356.111	2593.06
356.18	2756.07
356.25	2824.95
356.319	2921.39
356.389	2981.08
356.459	2999.45
356.528	3199.2
356.598	3366.81
356.667	3424.21
356.737	3440.28
356.806	3477.02
356.876	3669.88
356.945	3747.95
357.015	3888.01
357.084	3950
357.154	4253.07
357.223	4308.17
357.292	4512.52
357.362	4501.04
357.431	4769.67
357.501	4847.74
357.57	5127.85
357.639	5203.62
357.709	5362.04
357.778	5469.96
357.847	5554.91
357.917	5924.57
357.986	6140.39
358.055	6151.87
358.124	6268.97
358.194	6482.5
358.263	6615.66
358.332	6957.77
358.401	7134.56
358.471	7219.51
358.54	7625.91
358.609	7577.69
358.678	8013.93
358.747	8135.62
358.816	8392.78
358.886	8666
358.955	8861.16
359.024	9166.53
359.093	9403.02
359.162	9646.4
359.231	9997.69
359.3	10188.26
359.369	10587.76
359.438	10913.79
359.507	11108.96
359.576	11485.5
359.645	11747.25
359.714	12020.47
359.783	12390.13
359.852	12706.98
359.921	12918.21
359.99	13067.45
360.059	13586.35
360.128	14008.82
360.197	14318.78
360.266	14686.14
360.334	14697.62
360.403	15315.24
360.472	15783.63
360.541	16066.04
360.61	16392.07
360.679	16853.57
360.747	17175.01
360.816	17588.29
360.885	17900.55
360.954	18545.73
361.022	18968.2
361.091	19303.41
361.16	19606.49
361.228	19817.72
361.297	20297.59
361.366	20986.39
361.434	21314.72
361.503	21943.82
361.572	22531.6
361.64	22614.26
361.709	23247.96
361.778	23978.09
361.846	24067.63
361.915	24522.24
361.983	24999.81
362.052	25922.81
362.12	26255.73
362.189	26588.65
362.257	27541.5
362.326	28060.39
362.394	28384.13
362.463	28680.32
362.531	29415.04
362.6	29447.18
362.668	30207.16
362.737	30565.34
362.805	31348.28
362.873	31981.98
362.942	32360.82
363.01	32895.79
363.079	33823.38
363.147	33770.57
363.215	34528.25
363.284	34964.49
363.352	35545.38
363.42	36431.64
363.488	37097.49
363.557	37705.93
363.625	38116.92
363.693	38789.65
363.761	39113.38
363.83	39712.64
363.898	39675.91
363.966	40727.48
364.034	41779.05
364.102	41781.35
364.171	42626.28
364.239	42791.59
364.307	43666.37
364.375	44357.47
364.443	44965.91
364.511	45673.08
364.579	45865.95
364.647	46968.03
364.715	47498.41
364.783	47824.44
364.851	48214.77
364.919	48701.52
364.987	49344.4
365.055	49725.54
365.123	50558.99
365.191	50304.13
365.259	51080.19
365.327	51419.99
365.395	51982.52
365.463	52402.69
365.531	52584.07
365.599	53477.22
365.667	53491
365.735	53504.77
365.802	54097.14
365.87	54352
365.938	54358.89
366.006	54985.7
366.074	54969.63
366.142	55477.04
366.209	55603.32
366.277	55718.12
366.345	56071.71
366.413	56037.27
366.48	56363.3
366.548	56436.78
366.616	56668.67
366.683	57162.31
366.751	57116.39
366.819	57247.27
366.886	57564.12
366.954	57672.03
367.022	57610.04
367.089	57908.52
367.157	58034.8
367.224	57986.58
367.292	58429.71
367.36	58464.15
367.427	58608.8
367.495	58326.39
367.562	58794.78
367.63	58785.59
367.697	58840.7
367.765	58989.94
367.832	59102.44
367.9	59322.86
367.967	59276.94
368.034	59189.69
368.102	59460.62
368.169	59664.96
368.237	59554.76
368.304	59729.25
368.371	59644.3
368.439	59706.29
368.506	59715.48
368.573	59972.63
368.641	59963.45
368.708	59857.83
368.775	59915.23
368.843	59910.64
368.91	59988.7
368.977	59901.45
369.044	59995.59
369.112	59970.33
369.179	60023.14
369.246	60158.61
369.313	60303.26
369.38	60165.49
369.448	59970.33
369.515	60147.13
369.582	60206.82
369.649	60066.77
369.716	60154.01
369.783	60066.77
369.85	60186.16
369.917	60082.84
369.984	60036.92
370.052	60227.49
370.119	60271.11
370.186	60367.54
370.253	60241.26
370.32	60043.81
370.387	60154.01
370.454	59715.48
370.521	60030.03
370.587	59903.75
370.654	59883.09
370.721	60030.03
370.788	60020.85
370.855	59669.56
370.922	59889.97
370.989	59609.86
371.056	59770.58
371.123	59715.48
371.189	59598.38
371.256	59681.04
371.323	59462.92
371.39	59405.52
371.457	59309.08
371.523	59210.35
371.59	59155.25
371.657	59508.84
371.724	59201.17
371.79	58932.54
371.857	59084.07
371.924	59051.93
371.991	58815.44
372.057	58758.04
372.124	58785.59
372.191	58875.14
372.257	58725.9
372.324	58510.07
372.39	58565.18
372.457	58606.5
372.524	58461.86
372.59	58268.99
372.657	58138.12
372.723	57977.4
372.79	57906.22
372.856	57901.63
372.923	57538.86
372.989	57584.78
373.056	57646.77
373.122	57554.93
373.189	57506.72
373.255	57256.45
373.322	57366.66
373.388	57091.14
373.454	57045.22
373.521	56978.63
373.587	56863.83
373.654	56960.27
373.72	56565.35
373.786	56569.94
373.853	56563.06
373.919	56432.18
373.985	56030.38
374.052	55901.81
374.118	55936.25
374.184	55681.39
374.25	55408.16
374.317	55401.27
374.383	55281.88
374.449	55118.87
374.515	55020.14
374.581	54776.76
374.648	54719.36
374.714	54306.08
374.78	54636.7
374.846	54032.85
374.912	54090.25
374.978	53513.96
375.044	53849.17
375.11	53376.19
375.177	53346.35
375.243	53061.64
375.309	52866.48
375.375	52616.22
375.441	52531.26
375.507	52363.65
375.573	52299.37
375.639	52124.87
375.705	51700.11
375.771	51250.09
375.837	51394.74
375.903	51091.67
375.968	51146.77
376.034	50471.74
376.1	50118.16
376.166	50074.53
376.232	49840.34
376.298	49675.03
376.364	49337.51
376.43	49165.31
376.495	48726.78
376.561	48664.78
376.627	48178.03
376.693	48375.49
376.759	47794.6
376.824	47326.21
376.89	47305.55
376.956	47117.27
377.022	47399.68
377.087	47020.84
377.153	46152.95
377.219	46299.89
377.284	45994.52
377.35	45275.87
377.416	45330.98
377.481	45480.22
377.547	44593.96
377.613	44541.15
377.678	44293.18
377.744	43985.52
377.809	43714.59
377.875	43340.34
377.94	43172.73
378.006	42920.17
378.071	42302.54
378.137	42350.76
378.202	42644.65
378.268	41818.08
378.333	41494.35
378.399	41400.21
378.464	41122.39
378.53	40920.34
378.595	40350.93
378.661	40224.65
378.726	40210.88
378.791	39914.69
378.857	39721.83
378.922	38789.65
378.987	38819.49
379.053	38762.09
379.118	38401.62
379.183	38089.36
379.249	37650.83
379.314	38025.07
379.379	37205.4
379.444	36792.12
379.51	37228.36
379.575	36433.94
379.64	36043.62
379.705	35494.87
379.771	35228.54
379.836	34863.47
379.901	34709.64
379.966	34744.08
380.031	34328.5
380.096	34181.55
380.161	34057.57
380.227	33926.7
380.292	33341.22
380.357	33286.11
380.422	32909.57
380.487	32493.99
380.552	32661.6
380.617	32328.68
380.682	32241.43
380.747	31690.38
380.812	31940.65
380.877	31244.96
380.942	30999.29
381.007	30404.62
381.072	30739.84
381.137	30599.78
381.202	30815.6
381.266	30464.32
381.331	29665.3
381.396	29456.37
381.461	29263.5
381.526	29059.16
381.591	29020.13
381.656	28960.43
381.72	28471.38
381.785	28586.18
381.85	28340.51
381.915	28221.11
381.979	28071.87
382.044	27973.15
382.109	27562.16
382.174	27546.09
382.238	27371.59
382.303	27176.43
382.368	26930.76
382.432	26953.72
382.497	26528.96
382.562	26772.33
382.626	26462.37
382.691	26565.69
382.756	25883.78
382.82	25977.91
382.885	25750.61
382.949	25445.24
383.014	25137.57
383.078	25096.25
383.143	24885.01
383.208	24731.18
383.272	24540.61
383.337	24616.38
383.401	24370.71
383.465	24398.26
383.53	23982.68
383.594	23789.82
383.659	23962.02
383.723	23516.59
383.788	23268.62
383.852	23254.85
383.916	23273.21
383.981	23518.89
384.045	22924.22
384.109	23140.05
384.174	22747.43
384.238	22549.97
384.302	22646.4
384.367	22540.79
384.431	22391.55
384.495	22269.86
384.56	21854.28
384.624	21613.2
384.688	21519.06
384.752	21420.33
384.816	21204.51
384.881	21298.65
384.945	20945.06
385.009	21034.6
385.073	20922.1
385.137	20501.93
385.201	20391.72
385.265	20219.52
385.33	20178.19
385.394	19927.93
385.458	19852.16
385.522	19801.65
385.586	19640.93
385.65	19505.46
385.714	19376.89
385.778	19296.53
385.842	18972.79
385.906	18887.84
385.97	18857.99
386.034	18807.48
386.098	18536.55
386.162	18490.63
386.226	18295.46
386.29	18033.72
386.354	17783.45
386.417	17955.66
386.481	17574.52
386.545	17379.36
386.609	16959.19
386.673	17257.67
386.737	16851.27
386.8	16623.97
386.864	16518.35
386.928	16536.72
386.992	16263.5
387.056	16052.26
387.119	16093.59
387.183	15898.43
387.247	15746.89
387.31	15519.59
387.374	15473.67
387.438	15131.56
387.502	15037.43
387.565	14846.86
387.629	14798.64
387.692	14624.15
387.756	14727.47
387.82	14259.08
387.883	14341.74
387.947	13965.19
388.01	13666.71
388.074	13786.1
388.138	13372.82
388.201	13418.74
388.265	13051.38
388.328	12957.24
388.392	12998.57
388.455	12773.56
388.519	12493.45
388.582	12374.06
388.645	12479.67
388.709	12050.32
388.772	12070.98
388.836	12073.28
388.899	11701.33
388.962	11717.4
389.026	11657.7
389.089	11366.11
389.153	11329.37
389.216	11262.79
389.279	11051.55
389.343	10943.64
389.406	10626.79
389.469	10415.56
389.532	10286.98
389.596	10218.1
389.659	10117.08
389.722	10114.78
389.785	10055.09
389.848	9848.45
389.912	9653.29
389.975	9584.4
390.038	9455.83
390.101	9412.2
390.164	9244.6
390.227	9155.05
390.291	9253.78
390.354	9111.43
390.417	8884.12
390.48	8872.64
390.543	8714.22
390.606	8601.71
390.669	8480.02
390.732	8298.64
390.795	8356.04
390.858	8209.1
390.921	8156.29
390.984	8110.37
391.047	7825.66
391.11	7777.45
391.173	7805
391.236	7855.51
391.299	7658.05
391.362	7520.29
391.424	7561.62
391.487	7359.57
391.55	7352.68
391.613	7125.38
391.676	7171.3
391.739	7219.51
391.802	6971.55
391.864	6989.91
391.927	6937.11
391.99	6946.29
392.053	6758.02
392.115	6758.02
392.178	6482.5
392.241	6640.92
392.304	6604.18
392.366	6569.74
392.429	6422.8
392.492	6395.25
392.554	6450.35
392.617	6206.97
392.68	6195.49
392.742	6131.21
392.805	6011.81
392.867	6025.59
392.93	5995.74
392.992	5942.93
393.055	5814.36
393.118	5750.07
393.18	5559.5
393.243	5743.18
393.305	5591.64
393.368	5683.48
393.43	5632.97
393.493	5621.49
393.555	5575.57
393.618	5366.64
393.68	5458.48
393.742	5336.79
393.805	5334.49
393.867	5187.55
393.93	5093.41
393.992	5134.74
394.054	5026.83
394.117	5054.38
394.179	5077.34
394.241	5088.82
394.304	5003.87
394.366	4776.56
394.428	4845.44
394.49	4815.59
394.553	4801.82
394.615	4829.37
394.677	4530.89
394.739	4647.98
394.802	4680.13
394.864	4576.81
394.926	4521.7
394.988	4432.16
395.05	4443.64
395.112	4496.45
395.174	4372.46
395.237	4372.46
395.299	4289.81
395.361	4227.81
395.423	4280.62
395.485	4227.81
395.547	4145.16
395.609	4140.57
395.671	4032.65
395.733	4090.05
395.795	3986.73
395.857	3959.18
395.919	3897.19
395.981	3883.41
396.043	3844.38
396.105	3832.9
396.167	3791.57
396.229	3752.54
396.291	3736.47
396.352	3623.96
396.414	3711.21
396.476	3722.69
396.538	3646.92
396.6	3722.69
396.662	3610.19
396.724	3543.6
396.785	3522.94
396.847	3525.24
396.909	3339.26
396.971	3327.78
397.032	3442.58
397.094	3348.44
397.156	3355.33
397.218	3403.55
397.279	3201.5
397.341	3300.23
397.403	3196.91
397.464	3210.68
397.526	3155.58
397.588	3256.6
397.649	3224.46
397.711	3121.14
397.772	2985.67
397.834	3095.88
397.896	2847.91
397.957	2937.46
398.019	2937.46
398.08	2905.31
398.142	3006.34
398.203	2859.39
398.265	2799.7
398.326	2859.39
398.388	2687.19
398.449	2632.09
398.511	2632.09
398.572	2689.49
398.633	2586.17
398.695	2705.56
398.756	2590.76
398.818	2549.43
398.879	2703.26
398.94	2434.63
399.002	2425.45
399.063	2487.44
399.124	2453
399.186	2393.3
399.247	2418.56
399.308	2391.01
399.369	2317.53
399.431	2202.73
399.492	2269.32
399.553	2223.4
399.614	2214.21
399.676	2292.28
399.737	2308.35
399.798	2239.47
399.859	2234.88
399.92	2156.81
399.981	2136.15
400.042	2255.54
400.104	2152.22
400.165	2053.49
400.226	2097.12
400.287	2145.33
400.348	2113.19
400.409	2085.64
400.47	2081.05
400.531	2067.27
400.592	2048.9
400.653	1927.21
400.714	1839.96
400.775	1892.77
400.836	2009.87
400.897	2000.69
400.958	1904.25
401.019	1892.77
401.08	1807.82
401.141	1876.7
401.201	1748.12
401.262	1672.36
401.323	1835.37
401.384	1812.41
401.445	1635.62
401.506	1796.34
401.567	1711.39
401.627	1738.94
401.688	1672.36
401.749	1605.77
401.81	1631.03
401.87	1575.92
401.931	1649.4
401.992	1651.69
402.053	1633.32
402.113	1603.48
402.174	1585.11
402.235	1507.04
402.295	1624.14
402.356	1555.26
402.417	1474.9
402.477	1493.27
402.538	1513.93
402.598	1564.44
402.659	1406.02
402.719	1566.74
402.78	1502.45
402.841	1504.75
402.901	1383.06
402.962	1486.38
403.022	1479.49
403.083	1424.39
403.143	1371.58
403.204	1424.39
403.264	1339.43
403.324	1357.8
403.385	1330.25
403.445	1401.43
403.506	1330.25
403.566	1344.03
403.627	1366.99
403.687	1187.9
403.747	1350.91
403.808	1183.31
403.868	1350.91
403.928	1325.66
403.989	1295.81
404.049	1275.15
404.109	1279.74
404.169	1279.74
404.23	1318.77
404.29	1339.43
404.35	1206.27
404.41	1167.23
404.47	1304.99
404.531	1272.85
404.591	1233.82
404.651	1268.26
404.711	1243
404.771	1229.23
404.831	1162.64
404.892	1259.07
404.952	1220.04
405.012	1130.5
405.072	1164.94
405.132	1098.35
405.192	1155.75
405.252	1174.12
405.312	1160.35
405.372	1105.24
405.432	1125.91
405.492	1008.81
405.552	1146.57
405.612	1158.05
405.672	1181.01
405.732	1093.76
405.792	1215.45
405.852	1077.69
405.912	1082.28
405.971	1079.99
406.031	1059.32
406.091	974.37
406.151	1057.03
406.211	1082.28
406.271	1043.25
406.33	1038.66
406.39	1059.32
406.45	1063.91
406.51	958.3
406.57	1034.07
406.629	1050.14
406.689	1038.66
406.749	1017.99
406.808	983.55
406.868	1057.03
406.928	1038.66
406.988	916.97
407.047	930.74
407.107	990.44
407.166	985.85
407.226	995.03
407.286	939.93
407.345	1034.07
407.405	903.19
407.464	864.16
407.524	992.74
407.584	900.9
407.643	850.38
407.703	956
407.762	880.23
407.822	880.23
407.881	912.38
407.941	818.24
408	907.78
408.059	926.15
408.119	916.97
408.178	887.12
408.238	838.9
408.297	912.38
408.356	898.6
408.416	848.09
408.475	845.79
408.535	859.57
408.594	928.45
408.653	875.64
408.712	822.83
408.772	871.05
408.831	836.61
408.89	871.05
408.95	854.98
409.009	804.46
409.068	866.46
409.127	852.68
409.186	880.23
409.246	829.72
409.305	804.46
409.364	744.77
409.423	857.27
409.482	861.86
409.541	763.14
409.6	845.79
409.66	779.21
409.719	786.1
409.778	843.5
409.837	742.47
409.896	825.13
409.955	770.02
410.014	749.36
410.073	774.62
410.132	871.05
410.191	733.29
410.25	792.98
410.309	809.06
410.368	763.14
410.427	783.8
410.486	742.47
410.545	776.91
410.603	696.55
410.662	664.41
410.721	767.73
410.78	770.02
410.839	776.91
410.898	760.84
410.957	767.73
411.015	753.95
411.074	783.8
411.133	749.36
411.192	751.66
411.25	740.18
411.309	724.1
411.368	634.56
411.427	694.26
411.485	714.92
411.544	712.62
411.603	636.86
411.661	756.25
411.72	639.15
411.779	774.62
411.837	717.22
411.896	652.93
411.955	662.11
412.013	657.52
412.072	685.07
412.13	664.41
412.189	641.45
412.247	687.37
412.306	680.48
412.364	726.4
412.423	593.23
412.481	691.96
412.54	682.78
412.598	659.82
412.657	664.41
412.715	675.89
412.774	694.26
412.832	662.11
412.891	664.41
412.949	625.38
413.007	648.34
413.066	611.6
413.124	678.18
413.182	652.93
413.241	613.9
413.299	698.85
413.357	607.01
413.416	558.79
413.474	632.26
413.532	650.63
413.59	595.53
413.649	673.59
413.707	595.53
413.765	558.79
413.823	577.16
413.881	577.16
413.94	629.97
413.998	618.49
414.056	669
414.114	604.71
414.172	600.12
414.23	652.93
414.288	634.56
414.347	572.57
414.405	627.67
414.463	570.27
414.521	595.53
414.579	627.67
414.637	547.31
414.695	584.05
414.753	627.67
414.811	563.38
414.869	584.05
414.927	570.27
414.985	648.34
415.043	685.07
415.101	616.19
415.158	565.68
415.216	577.16
415.274	570.27
415.332	593.23
415.39	531.24
415.448	528.94
415.506	581.75
415.563	600.12
415.621	556.5
415.679	540.42
415.737	501.39
415.795	607.01
415.852	629.97
415.91	551.9
415.968	503.69
416.026	547.31
416.083	572.57
416.141	602.42
416.199	586.34
416.256	554.2
416.314	593.23
416.372	584.05
416.429	538.13
416.487	604.71
416.544	483.02
416.602	510.58
416.66	584.05
416.717	542.72
416.775	545.02
416.832	505.98
416.89	565.68
416.947	561.09
417.005	517.46
417.062	533.54
417.12	549.61
417.177	505.98
417.235	517.46
417.292	483.02
417.35	567.98
417.407	466.95
417.464	512.87
417.522	483.02
417.579	501.39
417.637	540.42
417.694	535.83
417.751	540.42
417.809	483.02
417.866	565.68
417.923	549.61
417.981	496.8
418.038	517.46
418.095	505.98
418.152	542.72
418.21	485.32
418.267	540.42
418.324	542.72
418.381	581.75
418.438	503.69
418.496	466.95
418.553	485.32
418.61	508.28
418.667	478.43
418.724	512.87
418.781	531.24
418.838	485.32
418.895	501.39
418.952	471.54
419.01	466.95
419.067	494.5
419.124	526.65
419.181	492.21
419.238	551.9
419.295	526.65
419.352	471.54
419.409	501.39
419.466	515.17
419.523	434.81
419.579	464.65
419.636	450.88
419.693	473.84
419.75	508.28
419.807	441.69
419.864	450.88
419.921	508.28
419.978	501.39
420.034	432.51
420.091	489.91
420.148	531.24
420.205	441.69
420.262	510.58
420.318	457.77
420.375	446.29
420.432	531.24
420.489	453.17
420.545	501.39
420.602	489.91
420.659	414.14
420.715	503.69
420.772	538.13
420.829	501.39
420.885	437.1
420.942	443.99
420.999	453.17
421.055	519.76
421.112	469.25
421.168	483.02
421.225	460.06
421.282	409.55
421.338	382
421.395	448.58
421.451	483.02
421.508	462.36
421.564	455.47
421.621	505.98
421.677	494.5
421.734	432.51
421.79	418.73
421.846	460.06
421.903	457.77
421.959	421.03
422.016	453.17
422.072	505.98
422.128	466.95
422.185	462.36
422.241	480.73
422.297	446.29
422.354	439.4
422.41	434.81
422.466	450.88
422.523	441.69
422.579	483.02
422.635	499.1
422.691	455.47
422.748	489.91
422.804	457.77
422.86	423.33
422.916	487.62
422.972	441.69
423.029	450.88
423.085	471.54
423.141	480.73
423.197	430.21
423.253	512.87
423.309	453.17
423.365	391.18
423.421	418.73
423.477	430.21
423.533	439.4
423.589	441.69
423.645	418.73
423.701	478.43
423.757	453.17
423.813	416.44
423.869	494.5
423.925	478.43
423.981	398.07
424.037	432.51
424.093	404.96
424.149	384.29
424.205	425.62
424.261	409.55
424.317	457.77
424.373	393.48
424.428	462.36
424.484	414.14
424.54	437.1
424.596	421.03
424.652	421.03
424.708	386.59
424.763	466.95
424.819	487.62
424.875	402.66
424.931	416.44
424.986	411.85
425.042	462.36
425.098	425.62
425.153	430.21
425.209	418.73
425.265	443.99
425.32	400.37
425.376	414.14
425.432	375.11
425.487	377.41
425.543	455.47
425.598	414.14
425.654	434.81
425.709	425.62
425.765	365.93
425.82	441.69
425.876	416.44
425.932	404.96
425.987	464.65
426.042	425.62
426.098	462.36
426.153	460.06
426.209	443.99
426.264	478.43
426.32	372.81
426.375	455.47
426.43	434.81
426.486	382
426.541	421.03
426.597	460.06
426.652	386.59
426.707	423.33
426.763	377.41
426.818	443.99
426.873	411.85
426.928	379.7
426.984	388.89
427.039	421.03
427.094	446.29
427.149	425.62
427.205	414.14
427.26	363.63
427.315	439.4
427.37	441.69
427.425	400.37
427.48	421.03
427.536	414.14
427.591	416.44
427.646	476.13
427.701	418.73
427.756	485.32
427.811	466.95
427.866	349.85
427.921	407.25
427.976	372.81
428.031	384.29
428.086	370.52
428.141	365.93
428.196	363.63
428.251	372.81
428.306	407.25
428.361	409.55
428.416	425.62
428.471	418.73
428.526	395.77
428.581	400.37
428.636	409.55
428.691	473.84
428.745	446.29
428.8	434.81
428.855	308.53
428.91	487.62
428.965	368.22
429.02	400.37
429.074	377.41
429.129	404.96
429.184	402.66
429.239	462.36
429.293	455.47
429.348	347.56
429.403	384.29
429.457	425.62
429.512	414.14
429.567	473.84
429.621	416.44
429.676	462.36
429.731	386.59
429.785	361.33
429.84	400.37
429.895	423.33
429.949	372.81
430.004	416.44
430.058	409.55
430.113	414.14
430.167	457.77
430.222	427.92
430.276	473.84
430.331	391.18
430.385	375.11
430.44	430.21
430.494	386.59
430.549	372.81
430.603	368.22
430.657	462.36
430.712	398.07
430.766	421.03
430.821	391.18
430.875	402.66
430.929	432.51
430.984	455.47
431.038	443.99
431.092	400.37
431.147	462.36
431.201	398.07
431.255	432.51
431.309	414.14
431.364	368.22
431.418	418.73
431.472	368.22
431.526	402.66
431.581	430.21
431.635	384.29
431.689	423.33
431.743	384.29
431.797	407.25
431.851	393.48
431.906	361.33
431.96	471.54
432.014	352.15
432.068	368.22
432.122	352.15
432.176	391.18
432.23	432.51
432.284	423.33
432.338	425.62
432.392	418.73
432.446	386.59
432.5	375.11
432.554	375.11
432.608	368.22
432.662	446.29
432.716	425.62
432.77	411.85
432.824	398.07
432.878	416.44
432.931	372.81
432.985	432.51
433.039	361.33
433.093	359.04
433.147	391.18
433.201	359.04
433.254	356.74
433.308	437.1
433.362	361.33
433.416	409.55
433.47	466.95
433.523	407.25
433.577	377.41
433.631	409.55
433.684	423.33
433.738	421.03
433.792	345.26
433.846	421.03
433.899	377.41
433.953	398.07
434.006	425.62
434.06	400.37
434.114	393.48
434.167	393.48
434.221	393.48
