Data from FLMS155811_13-50-52-580.txt Node
Date: Tue Dec 31 13:50:52 MST 2019
User: ECEn Student
Spectrometer: FLMS15581
Trigger mode: 0
Integration Time (sec): 1.000000E-1
Scans to average: 1
Electric dark correction enabled: true
Nonlinearity correction enabled: false
Boxcar width: 0
XAxis mode: Wavelengths
Number of Pixels in Spectrum: 2048
>>>>>Begin Spectral Data<<<<<
298.026	-90.26
298.106	-90.26
298.185	-90.26
298.265	-78.78
298.344	-16.79
298.424	-94.85
298.503	-104.04
298.583	-65.01
298.662	-0.72
298.741	-48.93
298.821	-32.86
298.9	-28.27
298.98	-12.2
299.059	-12.2
299.138	-42.05
299.217	-37.45
299.297	70.46
299.376	58.98
299.455	91.12
299.535	169.19
299.614	88.83
299.693	104.9
299.772	164.6
299.852	208.22
299.931	196.74
300.01	224.29
300.089	238.07
300.168	231.18
300.247	238.07
300.327	320.72
300.406	306.95
300.485	313.84
300.564	300.06
300.643	267.92
300.722	359.76
300.801	357.46
300.88	364.35
300.959	343.68
301.038	359.76
301.117	387.31
301.196	424.04
301.275	403.38
301.354	403.38
301.433	465.37
301.512	355.16
301.591	433.23
301.67	387.31
301.749	410.27
301.828	444.71
301.907	389.6
301.985	382.72
302.064	396.49
302.143	398.79
302.222	375.83
302.301	435.52
302.38	389.6
302.458	359.76
302.537	389.6
302.616	373.53
302.695	435.52
302.773	430.93
302.852	382.72
302.931	343.68
303.01	320.72
303.088	348.28
303.167	318.43
303.246	362.05
303.324	385.01
303.403	391.9
303.481	368.94
303.56	362.05
303.639	343.68
303.717	332.2
303.796	352.87
303.874	313.84
303.953	380.42
304.032	389.6
304.11	378.12
304.189	366.64
304.267	396.49
304.346	283.99
304.424	371.24
304.502	364.35
304.581	341.39
304.659	350.57
304.738	341.39
304.816	371.24
304.895	394.2
304.973	309.24
305.051	350.57
305.13	359.76
305.208	389.6
305.286	336.8
305.365	311.54
305.443	405.68
305.521	368.94
305.6	371.24
305.678	426.34
305.756	341.39
305.834	368.94
305.913	345.98
305.991	398.79
306.069	403.38
306.147	355.16
306.225	345.98
306.304	339.09
306.382	316.13
306.46	364.35
306.538	343.68
306.616	385.01
306.694	364.35
306.772	371.24
306.85	302.36
306.929	366.64
307.007	364.35
307.085	394.2
307.163	316.13
307.241	391.9
307.319	401.08
307.397	343.68
307.475	424.04
307.553	389.6
307.631	403.38
307.709	362.05
307.786	421.75
307.864	414.86
307.942	366.64
308.02	378.12
308.098	421.75
308.176	341.39
308.254	382.72
308.332	373.53
308.409	359.76
308.487	442.41
308.565	368.94
308.643	389.6
308.721	449.3
308.798	295.47
308.876	428.64
308.954	378.12
309.032	343.68
309.109	460.78
309.187	345.98
309.265	348.28
309.342	456.19
309.42	398.79
309.498	401.08
309.575	375.83
309.653	373.53
309.731	412.56
309.808	311.54
309.886	385.01
309.963	382.72
310.041	389.6
310.119	313.84
310.196	373.53
310.274	382.72
310.351	371.24
310.429	357.46
310.506	295.47
310.584	375.83
310.661	357.46
310.738	398.79
310.816	373.53
310.893	336.8
310.971	391.9
311.048	364.35
311.126	366.64
311.203	334.5
311.28	380.42
311.358	357.46
311.435	352.87
311.512	433.23
311.59	407.97
311.667	380.42
311.744	391.9
311.821	320.72
311.899	350.57
311.976	385.01
312.053	407.97
312.13	398.79
312.208	355.16
312.285	382.72
312.362	378.12
312.439	362.05
312.516	380.42
312.593	343.68
312.671	385.01
312.748	451.6
312.825	389.6
312.902	366.64
312.979	348.28
313.056	414.86
313.133	368.94
313.21	371.24
313.287	428.64
313.364	378.12
313.441	345.98
313.518	345.98
313.595	417.16
313.672	453.89
313.749	355.16
313.826	362.05
313.903	371.24
313.98	375.83
314.057	417.16
314.134	348.28
314.211	394.2
314.287	380.42
314.364	437.82
314.441	380.42
314.518	396.49
314.595	378.12
314.672	421.75
314.748	362.05
314.825	357.46
314.902	391.9
314.979	410.27
315.055	414.86
315.132	412.56
315.209	396.49
315.286	380.42
315.362	385.01
315.439	396.49
315.516	332.2
315.592	350.57
315.669	362.05
315.746	378.12
315.822	410.27
315.899	414.86
315.975	387.31
316.052	316.13
316.128	345.98
316.205	343.68
316.282	391.9
316.358	327.61
316.435	380.42
316.511	449.3
316.588	435.52
316.664	449.3
316.741	412.56
316.817	426.34
316.893	336.8
316.97	371.24
317.046	433.23
317.123	368.94
317.199	371.24
317.275	403.38
317.352	398.79
317.428	368.94
317.504	382.72
317.581	435.52
317.657	359.76
317.733	394.2
317.81	401.08
317.886	343.68
317.962	421.75
318.038	387.31
318.115	387.31
318.191	380.42
318.267	403.38
318.343	428.64
318.419	405.68
318.496	460.78
318.572	371.24
318.648	364.35
318.724	444.71
318.8	428.64
318.876	433.23
318.952	449.3
319.028	380.42
319.105	398.79
319.181	389.6
319.257	405.68
319.333	414.86
319.409	417.16
319.485	449.3
319.561	380.42
319.637	451.6
319.713	382.72
319.789	407.97
319.865	447
319.94	412.56
320.016	410.27
320.092	435.52
320.168	394.2
320.244	421.75
320.32	437.82
320.396	380.42
320.472	375.83
320.547	410.27
320.623	355.16
320.699	357.46
320.775	417.16
320.851	410.27
320.926	398.79
321.002	426.34
321.078	341.39
321.154	385.01
321.229	398.79
321.305	352.87
321.381	371.24
321.456	469.96
321.532	428.64
321.608	407.97
321.683	412.56
321.759	375.83
321.835	378.12
321.91	389.6
321.986	440.12
322.061	391.9
322.137	414.86
322.212	396.49
322.288	430.93
322.364	451.6
322.439	412.56
322.515	396.49
322.59	419.45
322.666	506.7
322.741	401.08
322.816	364.35
322.892	479.15
322.967	343.68
323.043	364.35
323.118	389.6
323.193	412.56
323.269	433.23
323.344	394.2
323.42	389.6
323.495	407.97
323.57	382.72
323.646	378.12
323.721	447
323.796	398.79
323.871	339.09
323.947	343.68
324.022	378.12
324.097	357.46
324.172	375.83
324.248	364.35
324.323	375.83
324.398	410.27
324.473	405.68
324.548	341.39
324.623	394.2
324.699	433.23
324.774	417.16
324.849	447
324.924	428.64
324.999	401.08
325.074	382.72
325.149	435.52
325.224	472.26
325.299	389.6
325.374	430.93
325.449	403.38
325.524	412.56
325.599	421.75
325.674	380.42
325.749	368.94
325.824	410.27
325.899	483.74
325.974	378.12
326.049	389.6
326.124	456.19
326.199	449.3
326.273	435.52
326.348	368.94
326.423	407.97
326.498	435.52
326.573	336.8
326.648	366.64
326.722	368.94
326.797	458.48
326.872	421.75
326.947	430.93
327.021	447
327.096	465.37
327.171	419.45
327.245	368.94
327.32	456.19
327.395	421.75
327.47	398.79
327.544	394.2
327.619	424.04
327.693	412.56
327.768	387.31
327.843	394.2
327.917	442.41
327.992	437.82
328.066	447
328.141	387.31
328.215	382.72
328.29	364.35
328.364	398.79
328.439	435.52
328.513	341.39
328.588	449.3
328.662	435.52
328.737	371.24
328.811	472.26
328.886	483.74
328.96	424.04
329.035	407.97
329.109	444.71
329.183	380.42
329.258	421.75
329.332	428.64
329.406	476.85
329.481	357.46
329.555	412.56
329.629	410.27
329.704	407.97
329.778	405.68
329.852	405.68
329.926	378.12
330.001	407.97
330.075	486.04
330.149	410.27
330.223	373.53
330.297	405.68
330.372	407.97
330.446	447
330.52	412.56
330.594	389.6
330.668	433.23
330.742	357.46
330.816	371.24
330.89	419.45
330.964	440.12
331.038	373.53
331.113	378.12
331.187	417.16
331.261	463.08
331.335	373.53
331.409	357.46
331.483	428.64
331.557	417.16
331.63	453.89
331.704	430.93
331.778	456.19
331.852	366.64
331.926	449.3
332	394.2
332.074	414.86
332.148	385.01
332.222	396.49
332.295	419.45
332.369	396.49
332.443	433.23
332.517	428.64
332.591	460.78
332.665	504.4
332.738	410.27
332.812	373.53
332.886	403.38
332.959	437.82
333.033	391.9
333.107	440.12
333.181	467.67
333.254	474.56
333.328	435.52
333.402	486.04
333.475	355.16
333.549	442.41
333.622	453.89
333.696	375.83
333.77	442.41
333.843	348.28
333.917	373.53
333.99	458.48
334.064	359.76
334.137	396.49
334.211	488.33
334.284	430.93
334.358	424.04
334.431	456.19
334.505	378.12
334.578	451.6
334.652	387.31
334.725	451.6
334.799	371.24
334.872	424.04
334.945	428.64
335.019	433.23
335.092	433.23
335.165	472.26
335.239	401.08
335.312	371.24
335.385	433.23
335.459	401.08
335.532	472.26
335.605	522.77
335.678	403.38
335.752	410.27
335.825	403.38
335.898	421.75
335.971	368.94
336.045	410.27
336.118	449.3
336.191	405.68
336.264	483.74
336.337	442.41
336.41	472.26
336.483	488.33
336.557	410.27
336.63	417.16
336.703	387.31
336.776	458.48
336.849	401.08
336.922	371.24
336.995	362.05
337.068	405.68
337.141	387.31
337.214	403.38
337.287	453.89
337.36	375.83
337.433	378.12
337.506	479.15
337.579	474.56
337.652	472.26
337.725	469.96
337.797	368.94
337.87	479.15
337.943	467.67
338.016	435.52
338.089	456.19
338.162	456.19
338.235	451.6
338.307	414.86
338.38	463.08
338.453	412.56
338.526	407.97
338.598	465.37
338.671	474.56
338.744	426.34
338.817	410.27
338.889	499.81
338.962	486.04
339.035	412.56
339.107	398.79
339.18	426.34
339.253	426.34
339.325	433.23
339.398	447
339.47	426.34
339.543	394.2
339.616	472.26
339.688	428.64
339.761	380.42
339.833	398.79
339.906	428.64
339.978	476.85
340.051	449.3
340.123	435.52
340.196	394.2
340.268	490.63
340.341	387.31
340.413	442.41
340.485	440.12
340.558	391.9
340.63	444.71
340.703	424.04
340.775	428.64
340.847	391.9
340.92	472.26
340.992	513.59
341.064	424.04
341.137	385.01
341.209	430.93
341.281	449.3
341.354	456.19
341.426	460.78
341.498	515.88
341.57	483.74
341.643	428.64
341.715	440.12
341.787	488.33
341.859	474.56
341.931	398.79
342.003	385.01
342.076	474.56
342.148	456.19
342.22	490.63
342.292	504.4
342.364	460.78
342.436	504.4
342.508	499.81
342.58	481.44
342.652	465.37
342.724	538.84
342.796	433.23
342.868	430.93
342.94	472.26
343.012	440.12
343.084	522.77
343.156	451.6
343.228	447
343.3	412.56
343.372	456.19
343.444	424.04
343.516	428.64
343.588	531.96
343.66	433.23
343.731	486.04
343.803	483.74
343.875	463.08
343.947	428.64
344.019	483.74
344.09	447
344.162	518.18
344.234	435.52
344.306	449.3
344.377	481.44
344.449	490.63
344.521	458.48
344.593	394.2
344.664	469.96
344.736	472.26
344.808	453.89
344.879	460.78
344.951	428.64
345.023	483.74
345.094	463.08
345.166	463.08
345.237	424.04
345.309	481.44
345.38	453.89
345.452	472.26
345.524	453.89
345.595	433.23
345.667	440.12
345.738	476.85
345.81	385.01
345.881	536.55
345.953	479.15
346.024	442.41
346.095	479.15
346.167	502.11
346.238	453.89
346.31	456.19
346.381	465.37
346.452	488.33
346.524	486.04
346.595	458.48
346.666	490.63
346.738	467.67
346.809	447
346.88	515.88
346.952	506.7
347.023	509
347.094	469.96
347.165	527.36
347.237	483.74
347.308	437.82
347.379	476.85
347.45	483.74
347.521	467.67
347.593	449.3
347.664	417.16
347.735	483.74
347.806	545.73
347.877	502.11
347.948	506.7
348.019	481.44
348.09	481.44
348.161	481.44
348.233	509
348.304	515.88
348.375	472.26
348.446	481.44
348.517	513.59
348.588	486.04
348.659	506.7
348.73	509
348.801	440.12
348.871	502.11
348.942	529.66
349.013	442.41
349.084	472.26
349.155	460.78
349.226	486.04
349.297	463.08
349.368	566.4
349.439	486.04
349.509	474.56
349.58	460.78
349.651	513.59
349.722	490.63
349.793	488.33
349.863	490.63
349.934	469.96
350.005	488.33
350.076	476.85
350.146	465.37
350.217	536.55
350.288	483.74
350.358	488.33
350.429	483.74
350.5	559.51
350.57	513.59
350.641	495.22
350.711	603.13
350.782	522.77
350.853	552.62
350.923	511.29
350.994	506.7
351.064	513.59
351.135	502.11
351.205	469.96
351.276	513.59
351.346	525.07
351.417	557.21
351.487	554.92
351.558	580.17
351.628	575.58
351.699	538.84
351.769	554.92
351.84	610.02
351.91	621.5
351.98	495.22
352.051	637.57
352.121	614.61
352.191	610.02
352.262	591.65
352.332	662.83
352.402	678.9
352.473	690.38
352.543	678.9
352.613	697.27
352.683	662.83
352.754	690.38
352.824	653.65
352.894	713.34
352.964	777.63
353.035	731.71
353.105	763.85
353.175	745.49
353.245	761.56
353.315	876.36
353.385	835.03
353.455	892.43
353.526	851.1
353.596	874.06
353.666	839.62
353.736	915.39
353.806	993.45
353.876	1000.34
353.946	1007.23
354.016	1069.22
354.086	1037.08
354.156	1085.3
354.226	1112.85
354.296	1193.21
354.366	1248.31
354.436	1172.54
354.506	1282.75
354.576	1273.57
354.645	1319.49
354.715	1365.41
354.785	1390.66
354.855	1500.87
354.925	1505.46
354.995	1652.41
355.065	1615.67
355.134	1744.25
355.204	1684.55
355.274	1810.83
355.344	1783.28
355.414	1898.08
355.483	2012.88
355.553	2070.28
355.623	1976.15
355.693	2228.71
355.762	2354.99
355.832	2416.98
355.902	2341.21
355.971	2384.84
356.041	2566.22
356.111	2759.09
356.18	2738.42
356.25	2931.29
356.319	2846.33
356.389	2947.36
356.459	3181.55
356.528	3349.16
356.598	3294.06
356.667	3482.33
356.737	3606.31
356.806	3654.53
356.876	3737.19
356.945	3957.6
357.015	4024.19
357.084	4246.9
357.154	4331.85
357.223	4341.04
357.292	4639.52
357.362	4731.36
357.431	4797.94
357.501	4967.85
357.57	5211.22
357.639	5296.18
357.709	5479.86
357.778	5606.14
357.847	5782.93
357.917	5968.91
357.986	6285.76
358.055	6386.78
358.124	6451.07
358.194	6588.83
358.263	6944.71
358.332	7213.34
358.401	7383.25
358.471	7644.99
358.54	7713.87
358.609	7913.63
358.678	8315.43
358.747	8363.65
358.816	8508.29
358.886	8804.48
358.955	9164.95
359.024	9412.92
359.093	9610.38
359.162	9908.86
359.231	10188.97
359.3	10370.36
359.369	10535.67
359.438	10942.06
359.507	11242.84
359.576	11663.01
359.645	11908.68
359.714	12060.22
359.783	12540.09
359.852	12684.74
359.921	12928.11
359.99	13302.36
360.059	13717.94
360.128	14101.37
360.197	14530.73
360.266	14927.94
360.334	15033.55
360.403	15419.28
360.472	16020.84
360.541	16344.57
360.61	16493.81
360.679	17010.42
360.747	17556.87
360.816	17646.41
360.885	18146.94
360.954	18305.37
361.022	19076.83
361.091	19451.08
361.16	19285.76
361.228	20344.22
361.297	20679.44
361.366	20798.83
361.434	21680.5
361.503	21492.23
361.572	22552.98
361.64	22757.33
361.709	23349.7
361.778	23657.36
361.846	24022.43
361.915	24612.5
361.983	25487.28
362.052	25893.68
362.12	26525.08
362.189	26784.53
362.257	27700.64
362.326	27989.93
362.394	28534.09
362.463	29248.15
362.531	29659.13
362.6	30134.41
362.668	30471.92
362.737	31539.57
362.805	32322.5
362.873	32552.11
362.942	33160.55
363.01	33867.72
363.079	34533.56
363.147	35325.69
363.215	35748.15
363.284	36262.46
363.352	37548.22
363.42	37963.8
363.488	38113.04
363.557	39343.7
363.625	39545.75
363.693	39981.99
363.761	41056.52
363.83	41563.94
363.898	41894.57
363.966	42923.18
364.034	43586.73
364.102	43807.14
364.171	44500.54
364.239	45125.05
364.307	45887.33
364.375	46220.25
364.443	46808.03
364.511	47416.47
364.579	48513.96
364.647	48555.29
364.715	49042.05
364.783	49891.57
364.851	50072.95
364.919	50787.01
364.987	51106.16
365.055	51804.15
365.123	52178.4
365.191	52603.16
365.259	53007.25
365.327	53151.9
365.395	53643.25
365.463	53900.4
365.531	54125.41
365.599	54511.14
365.667	54864.73
365.735	55340
365.802	55505.31
365.87	55553.53
365.938	55792.31
366.006	56396.16
366.074	56389.28
366.142	56623.47
366.209	56887.51
366.277	57043.64
366.345	57381.15
366.413	57695.71
366.48	57739.33
366.548	57792.14
366.616	57994.19
366.683	58329.4
366.751	58265.12
366.819	58586.56
366.886	58790.9
366.954	58891.93
367.022	58981.47
367.089	59096.27
367.157	59275.36
367.224	59346.54
367.292	59594.51
367.36	59697.83
367.427	59663.39
367.495	59817.22
367.562	59817.22
367.63	59840.18
367.697	60051.41
367.765	60154.73
367.832	60308.56
367.9	60111.11
367.967	60384.33
368.034	60471.58
368.102	60574.9
368.169	60531.28
368.237	60859.61
368.304	60740.21
368.371	60627.71
368.439	60692
368.506	60790.73
368.573	61045.58
368.641	60728.73
368.708	61063.95
368.775	60958.34
368.843	60845.83
368.91	60832.05
368.977	60834.35
369.044	61093.8
369.112	60760.88
369.179	60960.63
369.246	60981.3
369.313	61057.06
369.38	61162.68
369.448	61222.38
369.515	61119.06
369.582	61015.74
369.649	61112.17
369.716	61100.69
369.783	60946.86
369.85	61024.92
369.917	60953.74
369.984	61034.1
370.052	61125.94
370.119	61011.14
370.186	60944.56
370.253	60896.34
370.32	60774.65
370.387	60912.42
370.454	60850.42
370.521	60634.6
370.587	60848.13
370.654	60820.57
370.721	60751.69
370.788	60604.75
370.855	60698.89
370.922	60604.75
370.989	60577.2
371.056	60643.78
371.123	60386.63
371.189	60285.6
371.256	60216.72
371.323	60262.64
371.39	60074.37
371.457	60088.15
371.523	60046.82
371.59	59695.53
371.657	60104.22
371.724	59863.14
371.79	59975.64
371.857	59821.81
371.924	59780.48
371.991	59479.71
372.057	59431.49
372.124	59511.85
372.191	59521.03
372.257	59436.08
372.324	59378.68
372.39	59229.44
372.457	59238.62
372.524	59201.89
372.59	58850.6
372.657	58777.13
372.723	58416.65
372.79	58499.31
372.856	58577.37
372.923	58375.32
372.989	58242.16
373.056	58106.69
373.122	57987.3
373.189	58017.15
373.255	57865.61
373.322	57693.41
373.388	57548.76
373.454	57658.97
373.521	57259.46
373.587	57417.89
373.654	57149.26
373.72	57011.5
373.786	56855.37
373.853	56839.29
373.919	56359.43
373.985	56173.45
374.052	56251.52
374.118	55920.89
374.184	55982.88
374.25	55842.83
374.317	55801.5
374.383	55275.71
374.449	55105.81
374.515	55121.88
374.581	55066.78
374.648	54807.33
374.714	54740.74
374.78	54444.56
374.846	53948.62
374.912	54540.99
374.978	54125.41
375.044	54157.56
375.11	53696.06
375.177	53774.12
375.243	53638.66
375.309	53280.48
375.375	53103.69
375.441	52991.18
375.507	52800.61
375.573	52848.83
375.639	52421.77
375.705	52502.13
375.771	51900.58
375.837	51625.06
375.903	51746.75
375.968	51404.64
376.034	51526.33
376.1	51133.71
376.166	50931.66
376.232	50924.77
376.298	50518.38
376.364	50125.76
376.43	50130.35
376.495	49914.53
376.561	49889.27
376.627	49423.18
376.693	49572.42
376.759	48812.45
376.824	48842.29
376.89	48663.2
376.956	48394.57
377.022	48771.12
377.087	48401.46
377.153	48102.98
377.219	48045.58
377.284	47655.26
377.35	47728.73
377.416	47225.9
377.481	46704.71
377.547	46296.02
377.613	46128.41
377.678	45733.5
377.744	45462.57
377.809	45253.63
377.875	45329.4
377.94	44766.88
378.006	44321.45
378.071	44544.16
378.137	43986.23
378.202	44082.67
378.268	43738.26
378.333	43515.55
378.399	42914
378.464	42241.27
378.53	42601.74
378.595	42392.8
378.661	42009.37
378.726	41382.56
378.791	41662.67
378.857	40845.29
378.922	40948.61
378.987	40126.64
379.053	40112.86
379.118	39628.41
379.183	39196.76
379.249	39509.01
379.314	39125.58
379.379	38990.12
379.444	38211.77
379.51	37963.8
379.575	37867.37
379.64	37803.08
379.705	36951.26
379.771	37208.41
379.836	36510.43
379.901	36039.74
379.966	35713.71
380.031	35729.78
380.096	35389.97
380.161	35261.4
380.227	35080.01
380.292	34939.96
380.357	34223.6
380.422	33920.53
380.487	33989.41
380.552	33801.13
380.617	33732.25
380.682	33488.88
380.747	32676.09
380.812	32572.77
380.877	32395.98
380.942	31902.33
381.007	31955.14
381.072	31902.33
381.137	31592.37
381.202	31560.23
381.266	31394.92
381.331	30862.24
381.396	30912.75
381.461	30584.43
381.526	30292.83
381.591	29975.98
381.656	29920.88
381.72	29987.46
381.785	29436.42
381.85	29608.62
381.915	28917.52
381.979	28802.72
382.044	29009.36
382.109	28825.68
382.174	28540.98
382.238	28336.63
382.303	28371.07
382.368	28217.24
382.432	27771.81
382.497	27450.37
382.562	27427.41
382.626	27122.04
382.691	27294.24
382.756	26933.77
382.82	26851.11
382.885	26793.71
382.949	26561.82
383.014	26451.61
383.078	26045.21
383.143	25976.33
383.208	25613.56
383.272	25358.71
383.337	25693.93
383.401	25239.32
383.465	24892.62
383.53	25000.53
383.594	24545.92
383.659	24814.55
383.723	24490.82
383.788	24428.82
383.852	24059.17
383.916	23960.44
383.981	24027.02
384.045	23712.47
384.109	23714.76
384.174	23152.24
384.238	23195.87
384.302	23131.58
384.367	23021.37
384.431	22901.98
384.495	22938.71
384.56	22780.29
384.624	22371.6
384.688	22408.34
384.752	22160.37
384.816	21691.98
384.881	21595.55
384.945	21349.88
385.009	21753.97
385.073	21147.83
385.137	20909.04
385.201	21255.74
385.265	20814.9
385.33	20603.67
385.394	20452.14
385.458	20337.33
385.522	20029.67
385.586	20250.09
385.65	19795.48
385.714	19733.48
385.778	19556.69
385.842	19545.21
385.906	19425.82
385.97	19092.9
386.034	19060.75
386.098	18610.74
386.162	18622.22
386.226	18222.71
386.29	18282.41
386.354	18142.35
386.417	18059.69
386.481	17696.92
386.545	17791.06
386.609	17274.46
386.673	17155.07
386.737	17228.54
386.8	16877.25
386.864	16918.58
386.928	16812.96
386.992	16477.74
387.056	16358.35
387.119	16305.54
387.183	15867
387.247	15846.34
387.31	15600.67
387.374	15490.46
387.438	15350.4
387.502	15212.64
387.565	14826.91
387.629	14744.26
387.692	14758.03
387.756	14555.98
387.82	14330.97
387.883	14000.35
387.947	13734.01
388.01	14002.64
388.074	13603.14
388.138	13766.16
388.201	13504.41
388.265	13472.27
388.328	13440.12
388.392	13093.42
388.455	12840.86
388.519	12957.96
388.582	12726.06
388.645	12631.93
388.709	12572.23
388.772	12299.01
388.836	12326.56
388.899	11984.45
388.962	12085.48
389.026	11628.57
389.089	11798.48
389.153	11513.77
389.216	11444.89
389.279	11229.07
389.343	11045.38
389.406	11056.86
389.469	10776.75
389.532	10678.02
389.596	10606.85
389.659	10551.74
389.722	10558.63
389.785	10276.22
389.848	10147.64
389.912	10117.8
389.975	10021.36
390.038	9941
390.101	9837.68
390.164	9658.59
390.227	9784.88
390.291	9552.98
390.354	9468.03
390.417	9451.95
390.48	9270.57
390.543	9151.18
390.606	9066.22
390.669	8928.46
390.732	8698.86
390.795	8825.14
390.858	8485.33
390.921	8432.53
390.984	8386.61
391.047	8363.65
391.11	8166.19
391.173	8010.06
391.236	8065.16
391.299	8138.64
391.362	7888.37
391.424	7941.18
391.487	7904.44
391.55	7748.31
391.613	7532.49
391.676	7569.23
391.739	7498.05
391.802	7369.47
391.864	7323.55
391.927	7105.43
391.99	7183.5
392.053	7149.06
392.115	7084.77
392.178	6942.42
392.241	6841.39
392.304	6797.77
392.366	6795.47
392.429	6561.28
392.492	6632.45
392.554	6641.64
392.617	6526.84
392.68	6274.28
392.742	6373
392.805	6297.24
392.867	6232.95
392.93	6285.76
392.992	6232.95
393.055	6196.21
393.118	6106.67
393.18	5955.13
393.243	5881.66
393.305	6014.83
393.368	5725.53
393.43	5723.23
393.493	5776.04
393.555	5656.65
393.618	5617.62
393.68	5505.11
393.742	5438.53
393.805	5617.62
393.867	5401.79
393.93	5399.5
393.992	5280.1
394.054	5273.22
394.117	5133.16
394.179	5117.09
394.241	5066.58
394.304	5048.21
394.366	5043.62
394.428	4970.14
394.49	5002.29
394.553	4958.66
394.615	4857.64
394.677	4878.3
394.739	4942.59
394.802	4788.76
394.864	4814.01
394.926	4662.48
394.988	4735.95
395.05	4552.27
395.112	4600.49
395.174	4520.13
395.237	4430.58
395.299	4334.15
395.361	4430.58
395.423	4308.89
395.485	4391.55
395.547	4214.76
395.609	4285.93
395.671	4182.61
395.733	4125.21
395.795	4093.07
395.857	4180.32
395.919	4187.2
395.981	4150.47
396.043	3982.86
396.105	3893.31
396.167	3845.1
396.229	3941.53
396.291	3716.52
396.352	3884.13
396.414	3606.31
396.476	3787.7
396.538	3808.36
396.6	3746.37
396.662	3666.01
396.724	3649.94
396.785	3512.18
396.847	3654.53
396.909	3505.29
396.971	3441
397.032	3530.55
397.094	3351.46
397.156	3344.57
397.218	3319.31
397.279	3342.27
397.341	3356.05
397.403	3238.95
397.464	3197.62
397.526	3273.39
397.588	3183.85
397.649	3108.08
397.711	3181.55
397.772	3147.11
397.834	3002.46
397.896	3025.42
397.957	2979.5
398.019	3043.79
398.08	3030.02
398.142	2889.96
398.203	2818.78
398.265	2855.52
398.326	2855.52
398.388	2761.38
398.449	2887.66
398.511	2678.73
398.572	2756.79
398.633	2747.61
398.695	2648.88
398.756	2717.76
398.818	2653.47
398.879	2628.21
398.94	2692.5
399.002	2547.85
399.063	2508.82
399.124	2628.21
399.186	2522.6
399.247	2416.98
399.308	2515.71
399.369	2540.97
399.431	2467.49
399.492	2414.68
399.553	2329.73
399.614	2288.4
399.676	2290.7
399.737	2345.8
399.798	2210.34
399.859	2281.52
399.92	2191.97
399.981	2143.76
400.042	2139.16
400.104	2157.53
400.165	2203.45
400.226	2235.6
400.287	2194.27
400.348	2035.84
400.409	2123.09
400.47	2169.01
400.531	2129.98
400.592	2040.43
400.653	2074.88
400.714	2022.07
400.775	1934.82
400.836	1957.78
400.897	2031.25
400.958	1907.27
401.019	1870.53
401.08	1937.11
401.141	1824.61
401.201	1902.67
401.262	1863.64
401.323	1799.35
401.384	1824.61
401.445	1776.39
401.506	1898.08
401.567	1723.59
401.627	1645.52
401.688	1785.58
401.749	1702.92
401.81	1762.62
401.87	1794.76
401.931	1746.55
401.992	1624.86
402.053	1634.04
402.113	1650.11
402.174	1615.67
402.235	1581.23
402.295	1572.05
402.356	1659.3
402.417	1606.49
402.477	1544.5
402.538	1539.9
402.598	1434.29
402.659	1537.61
402.719	1475.62
402.78	1539.9
402.841	1464.14
402.901	1471.02
402.962	1390.66
403.022	1468.73
403.083	1477.91
403.143	1496.28
403.204	1461.84
403.264	1445.77
403.324	1360.82
403.385	1438.88
403.445	1347.04
403.506	1471.02
403.566	1294.23
403.627	1383.78
403.687	1454.95
403.747	1340.15
403.808	1296.53
403.868	1351.63
403.928	1376.89
403.989	1298.82
404.049	1250.61
404.109	1301.12
404.169	1268.98
404.23	1264.38
404.29	1257.5
404.35	1218.46
404.41	1303.42
404.47	1190.91
404.531	1266.68
404.591	1246.02
404.651	1202.39
404.711	1319.49
404.771	1156.47
404.831	1213.87
404.892	1289.64
404.952	1259.79
405.012	1133.51
405.072	1057.74
405.132	1264.38
405.192	1151.88
405.252	1186.32
405.312	1096.78
405.372	1149.58
405.432	1124.33
405.492	1326.38
405.552	1154.18
405.612	1115.14
405.672	1117.44
405.732	1087.59
405.792	1078.41
405.852	1188.62
405.912	1060.04
405.971	1069.22
406.031	1041.67
406.091	1032.49
406.151	1156.47
406.211	1101.37
406.271	1101.37
406.33	1023.3
406.39	1041.67
406.45	1034.78
406.51	1030.19
406.57	1048.56
406.629	1018.71
406.689	1023.3
406.749	1060.04
406.808	1057.74
406.868	979.68
406.928	1112.85
406.988	1018.71
407.047	1009.53
407.107	956.72
407.166	963.61
407.226	938.35
407.286	975.09
407.345	929.17
407.405	892.43
407.464	1016.41
407.524	924.57
407.584	906.21
407.643	869.47
407.703	970.49
407.762	903.91
407.822	931.46
407.881	986.57
407.941	894.73
408	922.28
408.059	977.38
408.119	926.87
408.178	926.87
408.238	894.73
408.297	880.95
408.356	931.46
408.416	910.8
408.475	947.53
408.535	807.48
408.594	855.69
408.653	926.87
408.712	910.8
408.772	841.92
408.831	814.37
408.89	841.92
408.95	809.77
409.009	809.77
409.068	816.66
409.127	899.32
409.186	789.11
409.246	791.41
409.305	846.51
409.364	837.33
409.423	805.18
409.482	805.18
409.541	864.88
409.6	828.14
409.66	823.55
409.719	784.52
409.778	862.58
409.837	777.63
409.896	791.41
409.955	743.19
410.014	724.82
410.073	722.53
410.132	784.52
410.191	740.89
410.25	841.92
410.309	740.89
410.368	766.15
410.427	715.64
410.486	807.48
410.545	844.21
410.603	715.64
410.662	752.37
410.721	768.45
410.78	768.45
410.839	773.04
410.898	740.89
410.957	736.3
411.015	830.44
411.074	752.37
411.133	727.12
411.192	729.41
411.25	708.75
411.309	646.76
411.368	658.24
411.427	722.53
411.485	729.41
411.544	672.01
411.603	632.98
411.661	614.61
411.72	683.49
411.779	720.23
411.837	740.89
411.896	690.38
411.955	616.91
412.013	692.68
412.072	637.57
412.13	678.9
412.189	635.28
412.247	777.63
412.306	665.13
412.364	637.57
412.423	616.91
412.481	745.49
412.54	642.17
412.598	637.57
412.657	678.9
412.715	713.34
412.774	616.91
412.832	667.42
412.891	619.21
412.949	630.69
413.007	665.13
413.066	621.5
413.124	545.73
413.182	628.39
413.241	637.57
413.299	632.98
413.357	610.02
413.416	660.53
413.474	637.57
413.532	587.06
413.59	639.87
413.649	610.02
413.707	566.4
413.765	610.02
413.823	694.97
413.881	674.31
413.94	577.88
413.998	646.76
414.056	582.47
414.114	545.73
414.172	541.14
414.23	566.4
414.288	623.8
414.347	522.77
414.405	513.59
414.463	543.44
414.521	632.98
414.579	639.87
414.637	534.25
414.695	593.95
414.753	557.21
414.811	593.95
414.869	600.84
414.927	552.62
414.985	591.65
415.043	587.06
415.101	651.35
415.158	559.51
415.216	548.03
415.274	550.32
415.332	525.07
415.39	529.66
415.448	566.4
415.506	550.32
415.563	603.13
415.621	488.33
415.679	518.18
415.737	605.43
415.795	552.62
415.852	573.28
415.91	506.7
415.968	490.63
416.026	552.62
416.083	630.69
416.141	550.32
416.199	575.58
416.256	541.14
416.314	548.03
416.372	541.14
416.429	492.92
416.487	472.26
416.544	460.78
416.602	513.59
416.66	561.8
416.717	536.55
416.775	495.22
416.832	561.8
416.89	566.4
416.947	520.48
417.005	545.73
417.062	534.25
417.12	497.52
417.177	577.88
417.235	527.36
417.292	490.63
417.35	566.4
417.407	502.11
417.464	456.19
417.522	545.73
417.579	527.36
417.637	527.36
417.694	499.81
417.751	495.22
417.809	531.96
417.866	463.08
417.923	518.18
417.981	463.08
418.038	506.7
418.095	460.78
418.152	531.96
418.21	481.44
418.267	527.36
418.324	502.11
418.381	520.48
418.438	465.37
418.496	463.08
418.553	591.65
418.61	545.73
418.667	440.12
418.724	522.77
418.781	504.4
418.838	504.4
418.895	467.67
418.952	451.6
419.01	502.11
419.067	511.29
419.124	488.33
419.181	474.56
419.238	474.56
419.295	463.08
419.352	472.26
419.409	483.74
419.466	463.08
419.523	453.89
419.579	518.18
419.636	412.56
419.693	467.67
419.75	486.04
419.807	522.77
419.864	495.22
419.921	437.82
419.978	474.56
420.034	474.56
420.091	433.23
420.148	469.96
420.205	522.77
420.262	453.89
420.318	518.18
420.375	525.07
420.432	561.8
420.489	570.99
420.545	417.16
420.602	440.12
420.659	469.96
420.715	497.52
420.772	469.96
420.829	486.04
420.885	538.84
420.942	456.19
420.999	474.56
421.055	460.78
421.112	414.86
421.168	407.97
421.225	472.26
421.282	426.34
421.338	428.64
421.395	492.92
421.451	444.71
421.508	444.71
421.564	453.89
421.621	467.67
421.677	426.34
421.734	417.16
421.79	343.68
421.846	449.3
421.903	479.15
421.959	490.63
422.016	495.22
422.072	458.48
422.128	502.11
422.185	401.08
422.241	453.89
422.297	456.19
422.354	456.19
422.41	421.75
422.466	426.34
422.523	490.63
422.579	458.48
422.635	440.12
422.691	460.78
422.748	412.56
422.804	458.48
422.86	410.27
422.916	350.57
422.972	442.41
423.029	483.74
423.085	373.53
423.141	509
423.197	460.78
423.253	497.52
423.309	449.3
423.365	449.3
423.421	398.79
423.477	419.45
423.533	405.68
423.589	479.15
423.645	382.72
423.701	440.12
423.757	394.2
423.813	424.04
423.869	428.64
423.925	417.16
423.981	479.15
424.037	378.12
424.093	474.56
424.149	421.75
424.205	385.01
424.261	433.23
424.317	382.72
424.373	426.34
424.428	447
424.484	428.64
424.54	456.19
424.596	366.64
424.652	472.26
424.708	407.97
424.763	403.38
424.819	380.42
424.875	378.12
424.931	495.22
424.986	467.67
425.042	382.72
425.098	362.05
425.153	382.72
425.209	469.96
425.265	456.19
425.32	449.3
425.376	467.67
425.432	486.04
425.487	382.72
425.543	389.6
425.598	391.9
425.654	382.72
425.709	451.6
425.765	412.56
425.82	417.16
425.876	375.83
425.932	440.12
425.987	451.6
426.042	396.49
426.098	463.08
426.153	433.23
426.209	382.72
426.264	483.74
426.32	410.27
426.375	398.79
426.43	437.82
426.486	430.93
426.541	453.89
426.597	375.83
426.652	407.97
426.707	407.97
426.763	401.08
426.818	352.87
426.873	424.04
426.928	472.26
426.984	352.87
427.039	357.46
427.094	458.48
427.149	359.76
427.205	407.97
427.26	440.12
427.315	364.35
427.37	405.68
427.425	410.27
427.48	403.38
427.536	419.45
427.591	412.56
427.646	424.04
427.701	407.97
427.756	424.04
427.811	352.87
427.866	419.45
427.921	396.49
427.976	426.34
428.031	396.49
428.086	398.79
428.141	403.38
428.196	451.6
428.251	440.12
428.306	428.64
428.361	389.6
428.416	364.35
428.471	442.41
428.526	437.82
428.581	343.68
428.636	398.79
428.691	426.34
428.745	410.27
428.8	407.97
428.855	394.2
428.91	440.12
428.965	385.01
429.02	407.97
429.074	440.12
429.129	396.49
429.184	488.33
429.239	391.9
429.293	371.24
429.348	391.9
429.403	414.86
429.457	447
429.512	398.79
429.567	453.89
429.621	389.6
429.676	456.19
429.731	421.75
429.785	421.75
429.84	435.52
429.895	375.83
429.949	394.2
430.004	313.84
430.058	364.35
430.113	288.58
430.167	428.64
430.222	382.72
430.276	332.2
430.331	394.2
430.385	398.79
430.44	398.79
430.494	453.89
430.549	364.35
430.603	318.43
430.657	440.12
430.712	430.93
430.766	435.52
430.821	385.01
430.875	403.38
430.929	401.08
430.984	391.9
431.038	412.56
431.092	378.12
431.147	414.86
431.201	407.97
431.255	435.52
431.309	382.72
431.364	456.19
431.418	378.12
431.472	453.89
431.526	407.97
431.581	329.91
431.635	407.97
431.689	401.08
431.743	421.75
431.797	430.93
431.851	401.08
431.906	380.42
431.96	385.01
432.014	396.49
432.068	368.94
432.122	366.64
432.176	407.97
432.23	387.31
432.284	373.53
432.338	373.53
432.392	364.35
432.446	435.52
432.5	419.45
432.554	329.91
432.608	463.08
432.662	348.28
432.716	403.38
432.77	348.28
432.824	323.02
432.878	375.83
432.931	433.23
432.985	437.82
433.039	350.57
433.093	364.35
433.147	368.94
433.201	437.82
433.254	407.97
433.308	368.94
433.362	306.95
433.416	451.6
433.47	435.52
433.523	403.38
433.577	391.9
433.631	375.83
433.684	405.68
433.738	362.05
433.792	405.68
433.846	398.79
433.899	433.23
433.953	373.53
434.006	366.64
434.06	387.31
434.114	421.75
434.167	421.75
434.221	421.75
