Shortpass filter 370nm 25mm dia.,
Wavelength (nm),%T
300,64.94870758
301,68.75489807
302,69.22351837
303,68.94335175
304,71.2493515
305,76.21997833
306,81.00505829
307,82.0457077
308,79.63578796
309,76.97618103
310,77.05148315
311,80.39231873
312,84.99411774
313,87.99526215
314,87.79275513
315,85.32568359
316,82.93851471
317,82.58925629
318,84.59059906
319,87.96682739
320,91.11066437
321,92.7479248
322,92.66201019
323,91.61854553
324,90.81627655
325,90.6395874
326,91.288414
327,92.40216064
328,93.50447845
329,94.15141296
330,94.4174881
331,94.4217453
332,94.32815552
333,94.3015213
334,94.30711365
335,94.33380127
336,94.31310272
337,94.23552704
338,94.07396698
339,93.89328003
340,93.88249207
341,93.85617828
342,94.03266907
343,94.32112885
344,94.49979401
345,94.79703522
346,95.04191589
347,95.22755432
348,95.40474701
349,95.29882813
350,96.21269989
351,96.19673157
352,96.21060181
353,96.21720886
354,96.27004242
355,96.26877594
356,96.25070953
357,96.21880341
358,96.20333862
359,96.16118622
360,96.09451294
361,96.01660156
362,95.93657684
363,95.86219788
364,95.86242676
365,95.94271851
366,95.89981079
367,95.57564545
368,94.66829681
369,93.49731445
370,92.9809494
371,93.10559082
372,87.41731262
373,67.18595886
374,37.96162415
375,15.40303802
376,5.116633892
377,1.704531193
378,0.628860652
379,0.260543346
380,0.115515187
381,0.055460859
382,0.028672438
383,0.015823808
384,0.009176256
385,0.006110378
386,0.004173724
387,0.003126061
388,0.002421092
389,0.001944573
390,0.001773997
391,0.001566999
392,0.001597607
393,0.001384837
394,0.001386735
395,0.001223885
396,0.00130907
397,0.001373049
398,0.001226385
399,0.001222122
400,0.001246341
401,0.00124311
402,0.001085572
403,0.001302146
404,0.00128239
405,0.001165014
406,0.001236229
407,0.001193363
408,0.001324565
409,0.000980406
410,0.001212196
411,0.001266104
412,0.001078794
413,0.001285566
414,0.001073791
415,0.00103547
416,0.001106837
417,0.001166229
418,0.001233726
419,0.001169213
420,0.001048889
421,0.001155722
422,0.001036201
423,0.001132474
424,0.001115034
425,0.001056221
426,0.001093269
427,0.0011478
428,0.001022949
429,0.001186611
430,0.000875634
431,0.001144835
432,0.001023059
433,0.001065131
434,0.000934475
435,0.001004721
436,0.001161318
437,0.001124284
438,0.000816118
439,0.001000684
440,0.001066463
441,0.001051956
442,0.001076619
443,0.000901167
444,0.001027839
445,0.001147462
446,0.001104345
447,0.000938217
448,0.000863521
449,0.000954883
450,0.000965784
451,0.000891556
452,0.000961409
453,0.00094485
454,0.000976795
455,0.000884817
456,0.000937182
457,0.00092527
458,0.001006024
459,0.000916563
460,0.001075002
461,0.001142514
462,0.001085118
463,0.001001953
464,0.000864578
465,0.001096072
466,0.001066541
467,0.001137255
468,0.001248039
469,0.00135525
470,0.001300442
471,0.001575278
472,0.001734215
473,0.001996906
474,0.002643903
475,0.003412927
476,0.004754227
477,0.007055648
478,0.010993186
479,0.017940925
480,0.031642318
481,0.060553536
482,0.134285301
483,0.36550498
484,1.665644526
485,11.79743004
486,26.64779663
487,25.84652901
488,11.77134228
489,3.67725873
490,2.534916878
491,2.393410206
492,2.681632042
493,3.440121889
494,5.034132957
495,8.701972961
496,18.27456474
497,39.95378494
498,64.82481384
499,66.22902679
500,44.2816925
501,24.34127998
502,15.18218327
503,11.20785046
504,9.408946991
505,8.681885719
506,8.639547348
507,9.175037384
508,10.37752342
509,12.47504997
510,15.91984367
511,21.77758408
512,31.68349838
513,47.6693573
514,68.3960495
515,84.60531616
516,85.31996918
517,70.95591736
518,52.93923569
519,38.96922302
520,29.9617672
521,24.37424278
522,20.98560715
523,18.99276543
524,17.95174789
525,17.65270233
526,18.02318573
527,19.04845238
528,20.81790161
529,23.53076172
530,27.4796524
531,33.0169487
532,40.74458694
533,51.10379028
534,64.13288116
535,77.98297119
536,88.79468536
537,92.93325806
538,88.7985611
539,78.86766052
540,67.20122528
541,56.69371033
542,48.0970459
543,41.68040085
544,37.05434799
545,33.80197906
546,31.64517021
547,30.38090706
548,29.88771439
549,30.07250786
550,30.93896866
551,32.51488113
552,34.8659935
553,38.09926987
554,42.31328201
555,47.808815
556,54.62187958
557,62.6300621
558,71.51584625
559,80.43461609
560,88.10798645
561,92.86613464
562,93.69122314
563,90.55052185
564,84.46389008
565,76.80414581
566,68.90594482
567,61.68850708
568,55.39417267
569,50.20022964
570,46.15540314
571,42.98536301
572,40.61748886
573,38.94160461
574,37.87379456
575,37.38447571
576,37.4106369
577,37.96021652
578,39.03210831
579,40.64322281
580,42.81052399
581,45.63628006
582,49.13486099
583,53.31201553
584,58.23417282
585,63.85151672
586,70.11690521
587,76.67269135
588,82.99549103
589,88.66712189
590,93.02942657
591,95.58994293
592,95.99467468
593,94.3404007
594,90.94669342
595,86.36917114
596,81.2120285
597,75.96213531
598,70.95430756
599,66.32530975
600,62.26656342