Data from FLMS155811_13-06-41-830.txt Node
Date: Wed Mar 25 13:06:41 MDT 2020
User: ECEn Student
Spectrometer: FLMS15581
Trigger mode: 0
Integration Time (sec): 1.000000E-1
Scans to average: 1
Electric dark correction enabled: true
Nonlinearity correction enabled: false
Boxcar width: 0
XAxis mode: Wavelengths
Number of Pixels in Spectrum: 2048
>>>>>Begin Spectral Data<<<<<
298.026	-19.09
298.106	-19.09
298.185	-19.09
298.265	-39.75
298.344	-69.6
298.424	-53.53
298.503	-28.27
298.583	-65.01
298.662	-92.56
298.741	-51.23
298.821	-71.89
298.9	-94.85
298.98	-62.71
299.059	-76.49
299.138	26.83
299.217	47.5
299.297	91.12
299.376	42.91
299.455	104.9
299.535	157.71
299.614	125.56
299.693	120.97
299.772	81.94
299.852	132.45
299.931	212.81
300.01	251.84
300.089	240.36
300.168	263.32
300.247	224.29
300.327	300.06
300.406	357.46
300.485	364.35
300.564	320.72
300.643	362.05
300.722	334.5
300.801	318.43
300.88	325.32
300.959	378.12
301.038	380.42
301.117	362.05
301.196	389.6
301.275	394.2
301.354	378.12
301.433	352.87
301.512	366.64
301.591	412.56
301.67	424.04
301.749	465.37
301.828	417.16
301.907	419.45
301.985	469.96
302.064	382.72
302.143	435.52
302.222	421.75
302.301	380.42
302.38	456.19
302.458	430.93
302.537	398.79
302.616	414.86
302.695	371.24
302.773	403.38
302.852	359.76
302.931	426.34
303.01	345.98
303.088	334.5
303.167	323.02
303.246	396.49
303.324	348.28
303.403	398.79
303.481	316.13
303.56	419.45
303.639	401.08
303.717	373.53
303.796	366.64
303.874	412.56
303.953	421.75
304.032	385.01
304.11	385.01
304.189	332.2
304.267	350.57
304.346	336.8
304.424	345.98
304.502	290.88
304.581	341.39
304.659	359.76
304.738	380.42
304.816	297.76
304.895	343.68
304.973	401.08
305.051	336.8
305.13	334.5
305.208	334.5
305.286	343.68
305.365	385.01
305.443	320.72
305.521	380.42
305.6	426.34
305.678	380.42
305.756	295.47
305.834	341.39
305.913	320.72
305.991	348.28
306.069	352.87
306.147	410.27
306.225	290.88
306.304	345.98
306.382	382.72
306.46	366.64
306.538	371.24
306.616	444.71
306.694	366.64
306.772	329.91
306.85	341.39
306.929	385.01
307.007	366.64
307.085	391.9
307.163	410.27
307.241	368.94
307.319	345.98
307.397	373.53
307.475	325.32
307.553	343.68
307.631	345.98
307.709	440.12
307.786	398.79
307.864	325.32
307.942	352.87
308.02	385.01
308.098	368.94
308.176	343.68
308.254	375.83
308.332	329.91
308.409	433.23
308.487	373.53
308.565	343.68
308.643	341.39
308.721	304.65
308.798	373.53
308.876	362.05
308.954	293.17
309.032	387.31
309.109	405.68
309.187	334.5
309.265	339.09
309.342	323.02
309.42	428.64
309.498	460.78
309.575	375.83
309.653	401.08
309.731	419.45
309.808	389.6
309.886	405.68
309.963	368.94
310.041	421.75
310.119	362.05
310.196	325.32
310.274	318.43
310.351	368.94
310.429	410.27
310.506	348.28
310.584	398.79
310.661	348.28
310.738	364.35
310.816	334.5
310.893	345.98
310.971	403.38
311.048	341.39
311.126	440.12
311.203	375.83
311.28	412.56
311.358	433.23
311.435	456.19
311.512	437.82
311.59	373.53
311.667	345.98
311.744	355.16
311.821	380.42
311.899	407.97
311.976	417.16
312.053	380.42
312.13	366.64
312.208	389.6
312.285	407.97
312.362	444.71
312.439	389.6
312.516	368.94
312.593	389.6
312.671	343.68
312.748	371.24
312.825	407.97
312.902	378.12
312.979	385.01
313.056	329.91
313.133	426.34
313.21	426.34
313.287	401.08
313.364	433.23
313.441	414.86
313.518	348.28
313.595	403.38
313.672	412.56
313.749	405.68
313.826	345.98
313.903	414.86
313.98	368.94
314.057	364.35
314.134	378.12
314.211	398.79
314.287	368.94
314.364	396.49
314.441	389.6
314.518	405.68
314.595	444.71
314.672	401.08
314.748	437.82
314.825	352.87
314.902	428.64
314.979	426.34
315.055	352.87
315.132	407.97
315.209	389.6
315.286	375.83
315.362	412.56
315.439	357.46
315.516	352.87
315.592	412.56
315.669	433.23
315.746	378.12
315.822	405.68
315.899	398.79
315.975	382.72
316.052	387.31
316.128	414.86
316.205	368.94
316.282	407.97
316.358	430.93
316.435	483.74
316.511	442.41
316.588	405.68
316.664	366.64
316.741	405.68
316.817	394.2
316.893	387.31
316.97	391.9
317.046	391.9
317.123	437.82
317.199	456.19
317.275	442.41
317.352	403.38
317.428	380.42
317.504	394.2
317.581	407.97
317.657	428.64
317.733	396.49
317.81	389.6
317.886	437.82
317.962	398.79
318.038	366.64
318.115	364.35
318.191	334.5
318.267	366.64
318.343	444.71
318.419	396.49
318.496	403.38
318.572	366.64
318.648	410.27
318.724	362.05
318.8	437.82
318.876	405.68
318.952	410.27
319.028	343.68
319.105	440.12
319.181	357.46
319.257	401.08
319.333	403.38
319.409	394.2
319.485	414.86
319.561	424.04
319.637	453.89
319.713	465.37
319.789	460.78
319.865	396.49
319.94	405.68
320.016	458.48
320.092	380.42
320.168	396.49
320.244	428.64
320.32	373.53
320.396	300.06
320.472	334.5
320.547	382.72
320.623	421.75
320.699	449.3
320.775	366.64
320.851	417.16
320.926	440.12
321.002	304.65
321.078	378.12
321.154	382.72
321.229	412.56
321.305	382.72
321.381	410.27
321.456	414.86
321.532	407.97
321.608	401.08
321.683	403.38
321.759	371.24
321.835	414.86
321.91	426.34
321.986	403.38
322.061	428.64
322.137	421.75
322.212	451.6
322.288	407.97
322.364	345.98
322.439	463.08
322.515	447
322.59	396.49
322.666	476.85
322.741	444.71
322.816	435.52
322.892	348.28
322.967	364.35
323.043	378.12
323.118	348.28
323.193	366.64
323.269	414.86
323.344	403.38
323.42	359.76
323.495	474.56
323.57	410.27
323.646	345.98
323.721	410.27
323.796	410.27
323.871	403.38
323.947	375.83
324.022	417.16
324.097	398.79
324.172	348.28
324.248	428.64
324.323	447
324.398	430.93
324.473	417.16
324.548	424.04
324.623	403.38
324.699	389.6
324.774	424.04
324.849	463.08
324.924	414.86
324.999	387.31
325.074	394.2
325.149	437.82
325.224	389.6
325.299	364.35
325.374	424.04
325.449	433.23
325.524	426.34
325.599	362.05
325.674	394.2
325.749	382.72
325.824	497.52
325.899	412.56
325.974	366.64
326.049	359.76
326.124	394.2
326.199	428.64
326.273	442.41
326.348	451.6
326.423	341.39
326.498	419.45
326.573	362.05
326.648	378.12
326.722	437.82
326.797	401.08
326.872	435.52
326.947	389.6
327.021	410.27
327.096	463.08
327.171	458.48
327.245	444.71
327.32	403.38
327.395	412.56
327.47	352.87
327.544	451.6
327.619	389.6
327.693	359.76
327.768	424.04
327.843	398.79
327.917	405.68
327.992	375.83
328.066	401.08
328.141	474.56
328.215	398.79
328.29	405.68
328.364	433.23
328.439	366.64
328.513	389.6
328.588	430.93
328.662	424.04
328.737	442.41
328.811	355.16
328.886	394.2
328.96	447
329.035	405.68
329.109	378.12
329.183	403.38
329.258	410.27
329.332	380.42
329.406	359.76
329.481	442.41
329.555	378.12
329.629	504.4
329.704	403.38
329.778	401.08
329.852	456.19
329.926	428.64
330.001	456.19
330.075	355.16
330.149	463.08
330.223	430.93
330.297	357.46
330.372	371.24
330.446	389.6
330.52	385.01
330.594	382.72
330.668	401.08
330.742	449.3
330.816	472.26
330.89	373.53
330.964	352.87
331.038	412.56
331.113	345.98
331.187	417.16
331.261	375.83
331.335	412.56
331.409	428.64
331.483	426.34
331.557	407.97
331.63	396.49
331.704	387.31
331.778	421.75
331.852	380.42
331.926	417.16
332	378.12
332.074	382.72
332.148	488.33
332.222	412.56
332.295	430.93
332.369	323.02
332.443	476.85
332.517	396.49
332.591	410.27
332.665	382.72
332.738	460.78
332.812	460.78
332.886	424.04
332.959	426.34
333.033	357.46
333.107	456.19
333.181	410.27
333.254	410.27
333.328	426.34
333.402	300.06
333.475	426.34
333.549	407.97
333.622	458.48
333.696	421.75
333.77	435.52
333.843	458.48
333.917	435.52
333.99	378.12
334.064	378.12
334.137	412.56
334.211	419.45
334.284	371.24
334.358	433.23
334.431	511.29
334.505	483.74
334.578	407.97
334.652	430.93
334.725	391.9
334.799	458.48
334.872	352.87
334.945	403.38
335.019	368.94
335.092	394.2
335.165	414.86
335.239	371.24
335.312	474.56
335.385	359.76
335.459	368.94
335.532	382.72
335.605	389.6
335.678	467.67
335.752	401.08
335.825	465.37
335.898	407.97
335.971	430.93
336.045	378.12
336.118	449.3
336.191	389.6
336.264	380.42
336.337	433.23
336.41	355.16
336.483	419.45
336.557	435.52
336.63	449.3
336.703	465.37
336.776	449.3
336.849	509
336.922	380.42
336.995	414.86
337.068	407.97
337.141	460.78
337.214	362.05
337.287	421.75
337.36	368.94
337.433	412.56
337.506	465.37
337.579	481.44
337.652	437.82
337.725	437.82
337.797	447
337.87	481.44
337.943	385.01
338.016	467.67
338.089	476.85
338.162	343.68
338.235	334.5
338.307	460.78
338.38	428.64
338.453	419.45
338.526	403.38
338.598	467.67
338.671	414.86
338.744	380.42
338.817	435.52
338.889	382.72
338.962	414.86
339.035	373.53
339.107	407.97
339.18	453.89
339.253	389.6
339.325	414.86
339.398	449.3
339.47	375.83
339.543	371.24
339.616	435.52
339.688	447
339.761	373.53
339.833	437.82
339.906	430.93
339.978	385.01
340.051	449.3
340.123	440.12
340.196	407.97
340.268	410.27
340.341	456.19
340.413	410.27
340.485	410.27
340.558	426.34
340.63	476.85
340.703	440.12
340.775	398.79
340.847	403.38
340.92	343.68
340.992	447
341.064	401.08
341.137	426.34
341.209	419.45
341.281	398.79
341.354	394.2
341.426	394.2
341.498	389.6
341.57	463.08
341.643	426.34
341.715	460.78
341.787	520.48
341.859	389.6
341.931	444.71
342.003	421.75
342.076	414.86
342.148	412.56
342.22	444.71
342.292	435.52
342.364	414.86
342.436	414.86
342.508	419.45
342.58	394.2
342.652	444.71
342.724	424.04
342.796	424.04
342.868	449.3
342.94	428.64
343.012	472.26
343.084	378.12
343.156	382.72
343.228	465.37
343.3	509
343.372	394.2
343.444	405.68
343.516	398.79
343.588	444.71
343.66	426.34
343.731	456.19
343.803	437.82
343.875	444.71
343.947	385.01
344.019	389.6
344.09	403.38
344.162	412.56
344.234	444.71
344.306	428.64
344.377	440.12
344.449	382.72
344.521	401.08
344.593	435.52
344.664	385.01
344.736	414.86
344.808	476.85
344.879	463.08
344.951	426.34
345.023	410.27
345.094	433.23
345.166	391.9
345.237	463.08
345.309	430.93
345.38	385.01
345.452	442.41
345.524	499.81
345.595	467.67
345.667	419.45
345.738	424.04
345.81	433.23
345.881	352.87
345.953	424.04
346.024	412.56
346.095	460.78
346.167	382.72
346.238	426.34
346.31	465.37
346.381	483.74
346.452	428.64
346.524	435.52
346.595	453.89
346.666	444.71
346.738	430.93
346.809	412.56
346.88	412.56
346.952	444.71
347.023	435.52
347.094	456.19
347.165	396.49
347.237	401.08
347.308	435.52
347.379	458.48
347.45	449.3
347.521	414.86
347.593	403.38
347.664	417.16
347.735	437.82
347.806	502.11
347.877	401.08
347.948	414.86
348.019	385.01
348.09	394.2
348.161	385.01
348.233	403.38
348.304	447
348.375	419.45
348.446	483.74
348.517	410.27
348.588	502.11
348.659	371.24
348.73	472.26
348.801	421.75
348.871	421.75
348.942	467.67
349.013	472.26
349.084	398.79
349.155	451.6
349.226	474.56
349.297	428.64
349.368	426.34
349.439	412.56
349.509	410.27
349.58	407.97
349.651	417.16
349.722	385.01
349.793	469.96
349.863	453.89
349.934	389.6
350.005	472.26
350.076	469.96
350.146	433.23
350.217	421.75
350.288	495.22
350.358	407.97
350.429	419.45
350.5	437.82
350.57	419.45
350.641	419.45
350.711	458.48
350.782	449.3
350.853	394.2
350.923	444.71
350.994	444.71
351.064	451.6
351.135	442.41
351.205	465.37
351.276	472.26
351.346	472.26
351.417	479.15
351.487	447
351.558	380.42
351.628	389.6
351.699	407.97
351.769	419.45
351.84	440.12
351.91	453.89
351.98	426.34
352.051	426.34
352.121	403.38
352.191	479.15
352.262	499.81
352.332	417.16
352.402	453.89
352.473	483.74
352.543	419.45
352.613	440.12
352.683	453.89
352.754	486.04
352.824	435.52
352.894	398.79
352.964	492.92
353.035	412.56
353.105	396.49
353.175	518.18
353.245	458.48
353.315	449.3
353.385	437.82
353.455	479.15
353.526	412.56
353.596	456.19
353.666	483.74
353.736	536.55
353.806	424.04
353.876	492.92
353.946	472.26
354.016	430.93
354.086	421.75
354.156	437.82
354.226	421.75
354.296	481.44
354.366	428.64
354.436	451.6
354.506	463.08
354.576	437.82
354.645	527.36
354.715	522.77
354.785	479.15
354.855	421.75
354.925	486.04
354.995	421.75
355.065	534.25
355.134	460.78
355.204	428.64
355.274	548.03
355.344	511.29
355.414	506.7
355.483	497.52
355.553	467.67
355.623	472.26
355.693	385.01
355.762	469.96
355.832	419.45
355.902	506.7
355.971	541.14
356.041	515.88
356.111	543.44
356.18	490.63
356.25	419.45
356.319	456.19
356.389	447
356.459	396.49
356.528	476.85
356.598	467.67
356.667	504.4
356.737	490.63
356.806	456.19
356.876	520.48
356.945	474.56
357.015	437.82
357.084	444.71
357.154	444.71
357.223	458.48
357.292	467.67
357.362	541.14
357.431	495.22
357.501	513.59
357.57	410.27
357.639	433.23
357.709	465.37
357.778	483.74
357.847	511.29
357.917	504.4
357.986	511.29
358.055	481.44
358.124	573.28
358.194	495.22
358.263	465.37
358.332	463.08
358.401	545.73
358.471	504.4
358.54	479.15
358.609	467.67
358.678	513.59
358.747	527.36
358.816	511.29
358.886	483.74
358.955	451.6
359.024	506.7
359.093	444.71
359.162	504.4
359.231	490.63
359.3	469.96
359.369	502.11
359.438	463.08
359.507	479.15
359.576	495.22
359.645	465.37
359.714	481.44
359.783	449.3
359.852	479.15
359.921	511.29
359.99	453.89
360.059	472.26
360.128	483.74
360.197	451.6
360.266	472.26
360.334	481.44
360.403	490.63
360.472	509
360.541	456.19
360.61	467.67
360.679	449.3
360.747	453.89
360.816	398.79
360.885	518.18
360.954	515.88
361.022	497.52
361.091	527.36
361.16	531.96
361.228	518.18
361.297	469.96
361.366	538.84
361.434	522.77
361.503	447
361.572	490.63
361.64	515.88
361.709	518.18
361.778	479.15
361.846	449.3
361.915	527.36
361.983	506.7
362.052	541.14
362.12	465.37
362.189	502.11
362.257	541.14
362.326	502.11
362.394	538.84
362.463	564.1
362.531	518.18
362.6	525.07
362.668	541.14
362.737	472.26
362.805	582.47
362.873	490.63
362.942	492.92
363.01	511.29
363.079	550.32
363.147	513.59
363.215	577.88
363.284	545.73
363.352	623.8
363.42	616.91
363.488	589.36
363.557	552.62
363.625	605.43
363.693	557.21
363.761	534.25
363.83	561.8
363.898	598.54
363.966	548.03
364.034	632.98
364.102	593.95
364.171	593.95
364.239	589.36
364.307	582.47
364.375	667.42
364.443	632.98
364.511	669.72
364.579	713.34
364.647	701.86
364.715	674.31
364.783	639.87
364.851	699.57
364.919	706.45
364.987	683.49
365.055	779.93
365.123	752.37
365.191	704.16
365.259	773.04
365.327	807.48
365.395	740.89
365.463	814.37
365.531	917.69
365.599	823.55
365.667	855.69
365.735	880.95
365.802	899.32
365.87	919.98
365.938	936.05
366.006	906.21
366.074	993.45
366.142	933.76
366.209	897.02
366.277	1048.56
366.345	1041.67
366.413	1025.6
366.48	1119.74
366.548	1092.18
366.616	1131.22
366.683	1147.29
366.751	1202.39
366.819	1213.87
366.886	1213.87
366.954	1392.96
367.022	1296.53
367.089	1259.79
367.157	1411.33
367.224	1452.66
367.292	1436.58
367.36	1507.76
367.427	1572.05
367.495	1537.61
367.562	1654.71
367.63	1583.53
367.697	1682.26
367.765	1764.91
367.832	1799.35
367.9	1829.2
367.967	1909.56
368.034	1971.55
368.102	1925.63
368.169	2022.07
368.237	2031.25
368.304	2040.43
368.371	2185.08
368.439	2226.41
368.506	2279.22
368.573	2297.59
368.641	2508.82
368.708	2508.82
368.775	2511.12
368.843	2605.25
368.91	2600.66
368.977	2664.95
369.044	2720.05
369.112	2814.19
369.179	2777.45
369.246	2839.45
369.313	2917.51
369.38	2922.1
369.448	3167.78
369.515	3154
369.582	3110.38
369.649	3388.19
369.716	3349.16
369.783	3486.92
369.85	3626.98
369.917	3622.39
369.984	3638.46
370.052	3838.21
370.119	3833.62
370.186	3849.69
370.253	4063.22
370.32	4047.15
370.387	4198.68
370.454	4403.03
370.521	4359.4
370.587	4577.53
370.654	4504.05
370.721	4575.23
370.788	4701.51
370.855	4797.94
370.922	4949.48
370.989	5041.32
371.056	5213.52
371.123	5291.58
371.189	5353.58
371.256	5668.13
371.323	5557.92
371.39	5684.2
371.457	5819.67
371.523	5998.76
371.59	6099.78
371.657	6329.38
371.724	6490.1
371.79	6565.87
371.857	6751.85
371.924	6770.21
371.991	6825.32
372.057	7149.06
372.124	7192.68
372.191	7408.51
372.257	7417.69
372.324	7615.15
372.39	7925.11
372.457	8055.98
372.524	7925.11
372.59	8145.52
372.657	8524.37
372.723	8354.46
372.79	8763.15
372.856	8937.65
372.923	9135.1
372.989	9185.62
373.056	9550.68
373.122	9493.28
373.189	9750.43
373.255	10101.72
373.322	10214.23
373.388	10411.69
373.454	10423.17
373.521	10684.91
373.587	10783.64
373.654	11210.7
373.72	11350.75
373.786	11610.2
373.853	11832.92
373.919	12101.55
373.985	12241.61
374.052	12730.66
374.118	12501.05
374.184	12843.16
374.25	13251.85
374.317	13437.83
374.383	13548.03
374.449	14043.97
374.515	14115.15
374.581	14585.83
374.648	14746.55
374.714	14833.8
374.78	15077.18
374.846	15256.27
374.912	15614.44
374.978	16039.21
375.044	16280.29
375.11	16268.81
375.177	16757.86
375.243	17258.39
375.309	17430.59
375.375	17738.25
375.441	17577.53
375.507	18215.82
375.573	18603.85
375.639	18934.47
375.705	19441.89
375.771	19490.11
375.837	19997.53
375.903	20387.85
375.968	20204.17
376.034	20628.93
376.1	21101.91
376.166	21554.22
376.232	21845.81
376.298	22433.59
376.364	22502.47
376.43	23042.03
376.495	23186.68
376.561	23303.78
376.627	24180.85
376.693	24591.84
376.759	24665.31
376.824	25732.96
376.89	26118.69
376.956	26272.52
377.022	27165.67
377.087	27482.52
377.153	27613.39
377.219	28054.22
377.284	28809.61
377.35	29124.16
377.416	29379.02
377.481	29796.89
377.547	30366.3
377.613	30474.22
377.678	31516.61
377.744	31989.58
377.809	32327.1
377.875	33204.17
377.94	33651.89
378.006	34113.39
378.071	34597.85
378.137	35396.86
378.202	35633.35
378.268	35800.96
378.333	36951.26
378.399	37444.9
378.464	37582.66
378.53	38781.18
378.595	39070.48
378.661	40055.46
378.726	39763.87
378.791	40783.3
378.857	41662.67
378.922	42721.13
378.987	42461.68
379.053	43531.62
379.118	44220.43
379.183	44335.23
379.249	45377.61
379.314	45506.19
379.379	46316.68
379.444	47111.1
379.51	47880.27
379.575	48272.88
379.64	49048.93
379.705	49154.55
379.771	49955.86
379.836	50199.23
379.901	50899.52
379.966	51466.63
380.031	52157.73
380.096	52398.81
380.161	53195.53
380.227	53089.91
380.292	53911.88
380.357	54352.72
380.422	54479
380.487	55147.14
380.552	55493.83
380.617	55757.87
380.682	56134.42
380.747	56308.92
380.812	56687.76
380.877	56816.33
380.942	57176.81
381.007	57585.5
381.072	57493.66
381.137	57835.76
381.202	58506.2
381.266	58570.49
381.331	58852.89
381.396	59096.27
381.461	59126.12
381.526	59341.94
381.591	59392.46
381.656	59537.11
381.72	59746.04
381.785	59725.38
381.85	59902.17
381.915	59959.57
381.979	60039.93
382.044	60402.7
382.109	60235.09
382.174	60545.05
382.238	60737.92
382.303	60333.82
382.368	60326.93
382.432	60783.84
382.497	60590.97
382.562	60485.36
382.626	60480.77
382.691	60444.03
382.756	60278.72
382.82	60503.73
382.885	60400.41
382.949	60407.29
383.014	60058.3
383.078	60030.75
383.143	59853.95
383.208	59769
383.272	59420.01
383.337	59364.9
383.401	59057.24
383.465	58820.75
383.53	58356.96
383.594	58173.28
383.659	58095.21
383.723	57629.12
383.788	57399.52
383.852	57034.46
383.916	57071.19
383.981	57073.49
384.045	56272.18
384.109	55941.55
384.174	55661.44
384.238	55064.48
384.302	54984.12
384.367	54472.11
384.431	53723.61
384.495	53220.78
384.56	52655.97
384.624	52272.53
384.688	51914.35
384.752	51264.58
384.816	50141.83
384.881	49680.34
384.945	48977.76
385.009	48339.47
385.073	47547.34
385.137	46810.32
385.201	46002.13
385.265	45485.53
385.33	45148.01
385.394	44245.68
385.458	43111.45
385.522	42385.91
385.586	42227.49
385.65	41224.13
385.714	40105.98
385.778	39993.47
385.842	39107.21
385.906	38611.27
385.97	37796.19
386.034	37325.51
386.098	36078.78
386.162	35952.5
386.226	35415.23
386.29	34228.19
386.354	34147.83
386.417	33768.99
386.481	32552.11
386.545	32246.74
386.609	31534.97
386.673	31103.32
386.737	30869.13
386.8	30375.49
386.864	29734.9
386.928	29158.6
386.992	28703.99
387.056	28458.32
387.119	27964.68
387.183	27537.62
387.247	27420.52
387.31	27119.75
387.374	26201.34
387.438	25670.97
387.502	25324.27
387.565	25034.97
387.629	24605.62
387.692	24665.31
387.756	23967.33
387.82	23905.33
387.883	23811.2
387.947	23163.72
388.01	23000.71
388.074	22941.01
388.138	22401.45
388.201	22215.47
388.265	21602.44
388.328	21866.48
388.392	21336.1
388.455	21152.42
388.519	21143.23
388.582	20766.69
388.645	20573.82
388.709	20298.3
388.772	20128.4
388.836	19687.56
388.899	19274.28
388.962	19398.27
389.026	19049.27
389.089	18945.95
389.153	18803.6
389.216	18348.99
389.279	18369.65
389.343	18190.57
389.406	18025.25
389.469	17958.67
389.532	17938
389.596	17630.34
389.659	17448.95
389.722	17513.24
389.785	17228.54
389.848	17175.73
389.912	16943.83
389.975	16799.18
390.038	16643.06
390.101	16808.37
390.164	16629.28
390.227	16344.57
390.291	16307.84
390.354	16693.57
390.417	16289.47
390.48	16094.31
390.543	15873.89
390.606	15630.52
390.669	15501.94
390.732	15529.49
390.795	14863.65
390.858	15203.46
390.921	15196.57
390.984	14971.56
391.047	15003.7
391.11	14849.87
391.173	14891.2
391.236	14353.93
391.299	14218.47
391.362	14445.77
391.424	14080.71
391.487	14014.12
391.55	14167.96
391.613	13947.54
391.676	14167.96
391.739	13915.4
391.802	13630.69
391.864	13463.08
391.927	13242.67
391.99	13412.57
392.053	12946.48
392.115	13084.24
392.178	12891.38
392.241	12964.85
392.304	12778.87
392.366	12604.37
392.429	12590.6
392.492	12292.12
392.554	12328.85
392.617	11998.23
392.68	11993.64
392.742	11890.32
392.805	11580.35
392.867	11525.25
392.93	11392.08
392.992	11293.35
393.055	11346.16
393.118	10971.91
393.18	10962.73
393.243	10932.88
393.305	10790.53
393.368	10740.02
393.43	10482.86
393.493	10510.41
393.555	10551.74
393.618	10397.91
393.68	10166.01
393.742	9991.52
393.805	9674.67
393.867	9782.58
393.93	9451.95
393.992	9346.34
394.054	9548.39
394.117	9183.32
394.179	8942.24
394.241	9057.04
394.304	9073.11
394.366	8655.24
394.428	8593.25
394.49	8531.25
394.553	8515.18
394.615	8258.03
394.677	8113.38
394.739	8035.32
394.802	8065.16
394.864	7785.05
394.926	7748.31
394.988	7709.28
395.05	7638.11
395.112	7532.49
395.174	7323.55
395.237	7236.3
395.299	7061.81
395.361	7025.07
395.423	6774.81
395.485	6556.69
395.547	6715.11
395.609	6646.23
395.671	6338.56
395.733	6317.9
395.795	6187.03
395.857	6246.72
395.919	5973.5
395.981	6095.19
396.043	5957.43
396.105	5812.78
396.167	5613.03
396.229	5629.1
396.291	5459.19
396.352	5394.9
396.414	5383.42
396.476	5388.02
396.538	5355.87
396.6	5312.25
396.662	5032.14
396.724	5029.84
396.785	5064.28
396.847	4795.65
396.909	4894.37
396.971	4768.09
397.032	4692.33
397.094	4600.49
397.156	4364
397.218	4400.73
397.279	4285.93
397.341	4290.52
397.403	4295.12
397.464	4258.38
397.526	4138.99
397.588	4136.69
397.649	3946.12
397.711	3980.56
397.772	3957.6
397.834	3874.95
397.896	3916.27
397.957	3870.35
398.019	3787.7
398.08	3698.15
398.142	3693.56
398.203	3663.71
398.265	3594.83
398.326	3677.49
398.388	3654.53
398.449	3564.99
398.511	3463.96
398.572	3480.03
398.633	3521.36
398.695	3482.33
398.756	3358.34
398.818	3261.91
398.879	3220.58
398.94	3131.04
399.002	3197.62
399.063	3140.22
399.124	3229.77
399.186	3199.92
399.247	3142.52
399.308	3055.27
399.369	3018.54
399.431	3048.38
399.492	3007.05
399.553	2935.88
399.614	2947.36
399.676	2823.37
399.737	2885.37
399.798	2878.48
399.859	2786.64
399.92	2738.42
399.981	2887.66
400.042	2738.42
400.104	2630.51
400.165	2777.45
400.226	2651.17
400.287	2630.51
400.348	2637.4
400.409	2593.77
400.47	2731.53
400.531	2694.8
400.592	2524.89
400.653	2600.66
400.714	2534.08
400.775	2616.73
400.836	2497.34
400.897	2527.19
400.958	2518
401.019	2444.53
401.08	2504.23
401.141	2412.39
401.201	2416.98
401.262	2407.8
401.323	2371.06
401.384	2391.72
401.445	2345.8
401.506	2288.4
401.567	2384.84
401.627	2398.61
401.688	2299.88
401.749	2359.58
401.81	2343.51
401.87	2272.33
401.931	2256.26
401.992	2299.88
402.053	2164.42
402.113	2132.28
402.174	2221.82
402.235	2166.72
402.295	2056.51
402.356	2185.08
402.417	2109.32
402.477	2072.58
402.538	2132.28
402.598	2118.5
402.659	2146.05
402.719	2042.73
402.78	2079.47
402.841	2159.83
402.901	2028.95
402.962	2024.36
403.022	2042.73
403.083	2051.92
403.143	2031.25
403.204	2031.25
403.264	2051.92
403.324	2033.55
403.385	1918.75
403.445	1980.74
403.506	1944
403.566	1960.07
403.627	1937.11
403.687	1921.04
403.747	1868.23
403.808	1794.76
403.868	1927.93
403.928	1893.49
403.989	1847.57
404.049	1813.13
404.109	1780.99
404.169	1833.79
404.23	1833.79
404.29	1820.02
404.35	1748.84
404.41	1760.32
404.47	1794.76
404.531	1721.29
404.591	1764.91
404.651	1767.21
404.711	1652.41
404.771	1735.07
404.831	1551.38
404.892	1723.59
404.952	1638.63
405.012	1567.46
405.072	1617.97
405.132	1576.64
405.192	1496.28
405.252	1510.06
405.312	1583.53
405.372	1585.83
405.432	1542.2
405.492	1521.54
405.552	1588.12
405.612	1395.26
405.672	1413.62
405.732	1471.02
405.792	1464.14
405.852	1434.29
405.912	1411.33
405.971	1406.74
406.031	1438.88
406.091	1395.26
406.151	1392.96
406.211	1409.03
406.271	1383.78
406.33	1289.64
406.39	1273.57
406.45	1340.15
406.51	1326.38
406.57	1225.35
406.629	1294.23
406.689	1344.74
406.749	1236.83
406.808	1275.86
406.868	1243.72
406.928	1268.98
406.988	1326.38
407.047	1303.42
407.107	1154.18
407.166	1220.76
407.226	1108.26
407.286	1124.33
407.345	1172.54
407.405	1133.51
407.464	1190.91
407.524	1101.37
407.584	1161.06
407.643	1165.66
407.703	1073.81
407.762	1078.41
407.822	1158.77
407.881	1092.18
407.941	1103.66
408	1066.93
408.059	1073.81
408.119	1039.37
408.178	1030.19
408.238	1080.7
408.297	1071.52
408.356	1034.78
408.416	1108.26
408.475	1043.97
408.535	1032.49
408.594	1018.71
408.653	986.57
408.712	954.42
408.772	926.87
408.831	913.09
408.89	938.35
408.95	1004.93
409.009	1002.64
409.068	864.88
409.127	963.61
409.186	929.17
409.246	940.65
409.305	965.9
409.364	965.9
409.423	864.88
409.482	855.69
409.541	876.36
409.6	887.84
409.66	915.39
409.719	846.51
409.778	938.35
409.837	844.21
409.896	830.44
409.955	890.13
410.014	805.18
410.073	846.51
410.132	874.06
410.191	789.11
410.25	851.1
410.309	756.97
410.368	864.88
410.427	851.1
410.486	782.22
410.545	821.25
410.603	816.66
410.662	837.33
410.721	821.25
410.78	782.22
410.839	784.52
410.898	814.37
410.957	759.26
411.015	802.89
411.074	832.73
411.133	738.6
411.192	793.7
411.25	734.01
411.309	756.97
411.368	683.49
411.427	734.01
411.485	674.31
411.544	740.89
411.603	683.49
411.661	743.19
411.72	754.67
411.779	775.33
411.837	821.25
411.896	756.97
411.955	782.22
412.013	773.04
412.072	743.19
412.13	720.23
412.189	706.45
412.247	713.34
412.306	763.85
412.364	607.73
412.423	697.27
412.481	626.09
412.54	692.68
412.598	699.57
412.657	644.46
412.715	681.2
412.774	690.38
412.832	678.9
412.891	704.16
412.949	667.42
413.007	630.69
413.066	644.46
413.124	731.71
413.182	747.78
413.241	646.76
413.299	610.02
413.357	667.42
413.416	637.57
413.474	660.53
413.532	619.21
413.59	674.31
413.649	596.24
413.707	600.84
413.765	644.46
413.823	600.84
413.881	678.9
413.94	580.17
413.998	655.94
414.056	607.73
414.114	577.88
414.172	603.13
414.23	630.69
414.288	655.94
414.347	566.4
414.405	626.09
414.463	596.24
414.521	554.92
414.579	614.61
414.637	614.61
414.695	570.99
414.753	612.32
414.811	522.77
414.869	580.17
414.927	543.44
414.985	580.17
415.043	545.73
415.101	603.13
415.158	538.84
415.216	552.62
415.274	626.09
415.332	541.14
415.39	513.59
415.448	623.8
415.506	538.84
415.563	566.4
415.621	616.91
415.679	593.95
415.737	492.92
415.795	605.43
415.852	587.06
415.91	570.99
415.968	536.55
416.026	509
416.083	580.17
416.141	616.91
416.199	511.29
416.256	550.32
416.314	518.18
416.372	612.32
416.429	538.84
416.487	545.73
416.544	474.56
416.602	564.1
416.66	513.59
416.717	550.32
416.775	527.36
416.832	619.21
416.89	476.85
416.947	479.15
417.005	543.44
417.062	541.14
417.12	536.55
417.177	548.03
417.235	492.92
417.292	566.4
417.35	497.52
417.407	481.44
417.464	513.59
417.522	486.04
417.579	536.55
417.637	552.62
417.694	481.44
417.751	525.07
417.809	506.7
417.866	486.04
417.923	520.48
417.981	444.71
418.038	488.33
418.095	529.66
418.152	543.44
418.21	527.36
418.267	554.92
418.324	497.52
418.381	545.73
418.438	465.37
418.496	481.44
418.553	495.22
418.61	447
418.667	513.59
418.724	453.89
418.781	541.14
418.838	488.33
418.895	522.77
418.952	520.48
419.01	527.36
419.067	497.52
419.124	538.84
419.181	502.11
419.238	490.63
419.295	458.48
419.352	525.07
419.409	545.73
419.466	444.71
419.523	486.04
419.579	506.7
419.636	460.78
419.693	504.4
419.75	518.18
419.807	447
419.864	525.07
419.921	502.11
419.978	548.03
420.034	463.08
420.091	495.22
420.148	492.92
420.205	472.26
420.262	472.26
420.318	440.12
420.375	396.49
420.432	458.48
420.489	453.89
420.545	490.63
420.602	502.11
420.659	442.41
420.715	447
420.772	467.67
420.829	463.08
420.885	407.97
420.942	469.96
420.999	453.89
421.055	419.45
421.112	440.12
421.168	403.38
421.225	488.33
421.282	472.26
421.338	499.81
421.395	479.15
421.451	387.31
421.508	465.37
421.564	499.81
421.621	444.71
421.677	410.27
421.734	502.11
421.79	435.52
421.846	426.34
421.903	444.71
421.959	403.38
422.016	453.89
422.072	398.79
422.128	403.38
422.185	412.56
422.241	368.94
422.297	449.3
422.354	430.93
422.41	483.74
422.466	474.56
422.523	401.08
422.579	419.45
422.635	488.33
422.691	518.18
422.748	385.01
422.804	407.97
422.86	472.26
422.916	414.86
422.972	366.64
423.029	396.49
423.085	476.85
423.141	458.48
423.197	428.64
423.253	442.41
423.309	405.68
423.365	405.68
423.421	410.27
423.477	417.16
423.533	350.57
423.589	479.15
423.645	465.37
423.701	417.16
423.757	444.71
423.813	451.6
423.869	419.45
423.925	357.46
423.981	417.16
424.037	426.34
424.093	433.23
424.149	403.38
424.205	465.37
424.261	518.18
424.317	449.3
424.373	378.12
424.428	456.19
424.484	430.93
424.54	412.56
424.596	373.53
424.652	474.56
424.708	426.34
424.763	469.96
424.819	520.48
424.875	440.12
424.931	444.71
424.986	490.63
425.042	401.08
425.098	366.64
425.153	447
425.209	426.34
425.265	421.75
425.32	412.56
425.376	456.19
425.432	467.67
425.487	389.6
425.543	488.33
425.598	391.9
425.654	440.12
425.709	442.41
425.765	385.01
425.82	405.68
425.876	352.87
425.932	447
425.987	391.9
426.042	442.41
426.098	428.64
426.153	444.71
426.209	467.67
426.264	453.89
426.32	428.64
426.375	357.46
426.43	366.64
426.486	442.41
426.541	407.97
426.597	375.83
426.652	424.04
426.707	419.45
426.763	401.08
426.818	389.6
426.873	419.45
426.928	424.04
426.984	398.79
427.039	421.75
427.094	463.08
427.149	389.6
427.205	437.82
427.26	435.52
427.315	433.23
427.37	412.56
427.425	421.75
427.48	394.2
427.536	430.93
427.591	387.31
427.646	364.35
427.701	391.9
427.756	428.64
427.811	387.31
427.866	378.12
427.921	430.93
427.976	417.16
428.031	389.6
428.086	414.86
428.141	382.72
428.196	396.49
428.251	435.52
428.306	407.97
428.361	424.04
428.416	435.52
428.471	424.04
428.526	352.87
428.581	463.08
428.636	364.35
428.691	357.46
428.745	414.86
428.8	412.56
428.855	472.26
428.91	380.42
428.965	401.08
429.02	419.45
429.074	419.45
429.129	435.52
429.184	417.16
429.239	362.05
429.293	412.56
429.348	375.83
429.403	417.16
429.457	407.97
429.512	449.3
429.567	405.68
429.621	405.68
429.676	362.05
429.731	398.79
429.785	378.12
429.84	391.9
429.895	336.8
429.949	463.08
430.004	463.08
430.058	382.72
430.113	352.87
430.167	389.6
430.222	375.83
430.276	403.38
430.331	440.12
430.385	348.28
430.44	458.48
430.494	355.16
430.549	437.82
430.603	433.23
430.657	419.45
430.712	414.86
430.766	343.68
430.821	407.97
430.875	428.64
430.929	371.24
430.984	396.49
431.038	430.93
431.092	366.64
431.147	343.68
431.201	403.38
431.255	387.31
431.309	451.6
431.364	405.68
431.418	398.79
431.472	364.35
431.526	373.53
431.581	424.04
431.635	414.86
431.689	426.34
431.743	380.42
431.797	339.09
431.851	378.12
431.906	327.61
431.96	343.68
432.014	385.01
432.068	456.19
432.122	469.96
432.176	389.6
432.23	407.97
432.284	410.27
432.338	371.24
432.392	433.23
432.446	421.75
432.5	407.97
432.554	385.01
432.608	490.63
432.662	437.82
432.716	410.27
432.77	426.34
432.824	345.98
432.878	430.93
432.931	444.71
432.985	440.12
433.039	380.42
433.093	403.38
433.147	401.08
433.201	385.01
433.254	414.86
433.308	325.32
433.362	309.24
433.416	440.12
433.47	327.61
433.523	378.12
433.577	453.89
433.631	398.79
433.684	378.12
433.738	348.28
433.792	410.27
433.846	430.93
433.899	371.24
433.953	396.49
434.006	359.76
434.06	380.42
434.114	368.94
434.167	368.94
434.221	368.94
