Data from FLMS155811_13-06-50-597.txt Node
Date: Wed Mar 25 13:06:50 MDT 2020
User: ECEn Student
Spectrometer: FLMS15581
Trigger mode: 0
Integration Time (sec): 1.000000E-1
Scans to average: 1
Electric dark correction enabled: true
Nonlinearity correction enabled: false
Boxcar width: 0
XAxis mode: Wavelengths
Number of Pixels in Spectrum: 2048
>>>>>Begin Spectral Data<<<<<
298.026	-55.97
298.106	-55.97
298.185	-55.97
298.265	-113.37
298.344	-28.41
298.424	-74.33
298.503	-78.93
298.583	-83.52
298.662	-14.64
298.741	-37.6
298.821	-60.56
298.9	-44.49
298.98	-37.6
299.059	1.44
299.138	22.1
299.217	24.4
299.297	-3.16
299.376	100.16
299.455	93.28
299.535	116.24
299.614	77.2
299.693	118.53
299.772	205.78
299.852	231.04
299.931	219.56
300.01	198.89
300.089	219.56
300.168	226.44
300.247	221.85
300.327	247.11
300.406	260.88
300.485	306.8
300.564	306.8
300.643	327.47
300.722	320.58
300.801	345.84
300.88	400.94
300.959	345.84
301.038	279.25
301.117	334.36
301.196	435.38
301.275	348.13
301.354	361.91
301.433	396.35
301.512	359.61
301.591	391.76
301.67	375.68
301.749	396.35
301.828	350.43
301.907	410.12
301.985	435.38
302.064	320.58
302.143	341.24
302.222	410.12
302.301	288.44
302.38	377.98
302.458	325.17
302.537	451.45
302.616	366.5
302.695	345.84
302.773	396.35
302.852	368.8
302.931	387.16
303.01	426.2
303.088	375.68
303.167	364.2
303.246	295.32
303.324	341.24
303.403	396.35
303.481	338.95
303.56	352.72
303.639	373.39
303.717	318.28
303.796	350.43
303.874	315.99
303.953	359.61
304.032	352.72
304.11	320.58
304.189	359.61
304.267	318.28
304.346	387.16
304.424	341.24
304.502	348.13
304.581	350.43
304.659	343.54
304.738	400.94
304.816	377.98
304.895	361.91
304.973	428.49
305.051	332.06
305.13	380.28
305.208	387.16
305.286	318.28
305.365	352.72
305.443	336.65
305.521	336.65
305.6	377.98
305.678	398.64
305.756	373.39
305.834	472.12
305.913	357.32
305.991	405.53
306.069	341.24
306.147	348.13
306.225	327.47
306.304	394.05
306.382	364.2
306.46	373.39
306.538	348.13
306.616	430.79
306.694	394.05
306.772	439.97
306.85	394.05
306.929	371.09
307.007	361.91
307.085	348.13
307.163	398.64
307.241	403.24
307.319	400.94
307.397	396.35
307.475	439.97
307.553	391.76
307.631	306.8
307.709	398.64
307.786	299.92
307.864	320.58
307.942	417.01
308.02	350.43
308.098	382.57
308.176	384.87
308.254	311.4
308.332	355.02
308.409	327.47
308.487	421.6
308.565	320.58
308.643	343.54
308.721	352.72
308.798	320.58
308.876	311.4
308.954	361.91
309.032	419.31
309.109	400.94
309.187	348.13
309.265	384.87
309.342	364.2
309.42	380.28
309.498	366.5
309.575	325.17
309.653	366.5
309.731	343.54
309.808	345.84
309.886	343.54
309.963	322.88
310.041	375.68
310.119	400.94
310.196	375.68
310.274	446.86
310.351	414.72
310.429	407.83
310.506	375.68
310.584	380.28
310.661	366.5
310.738	382.57
310.816	428.49
310.893	297.62
310.971	382.57
311.048	338.95
311.126	371.09
311.203	311.4
311.28	350.43
311.358	407.83
311.435	426.2
311.512	341.24
311.59	343.54
311.667	419.31
311.744	382.57
311.821	350.43
311.899	341.24
311.976	373.39
312.053	352.72
312.13	343.54
312.208	410.12
312.285	382.57
312.362	398.64
312.439	465.23
312.516	387.16
312.593	371.09
312.671	348.13
312.748	382.57
312.825	375.68
312.902	410.12
312.979	350.43
313.056	338.95
313.133	417.01
313.21	430.79
313.287	329.76
313.364	414.72
313.441	380.28
313.518	456.04
313.595	334.36
313.672	366.5
313.749	410.12
313.826	373.39
313.903	384.87
313.98	396.35
314.057	439.97
314.134	412.42
314.211	407.83
314.287	403.24
314.364	419.31
314.441	352.72
314.518	371.09
314.595	382.57
314.672	426.2
314.748	366.5
314.825	414.72
314.902	405.53
314.979	421.6
315.055	400.94
315.132	343.54
315.209	410.12
315.286	355.02
315.362	361.91
315.439	403.24
315.516	368.8
315.592	357.32
315.669	352.72
315.746	400.94
315.822	439.97
315.899	400.94
315.975	338.95
316.052	336.65
316.128	338.95
316.205	389.46
316.282	412.42
316.358	375.68
316.435	361.91
316.511	361.91
316.588	345.84
316.664	412.42
316.741	343.54
316.817	345.84
316.893	355.02
316.97	384.87
317.046	412.42
317.123	345.84
317.199	417.01
317.275	398.64
317.352	417.01
317.428	371.09
317.504	348.13
317.581	368.8
317.657	364.2
317.733	428.49
317.81	410.12
317.886	371.09
317.962	391.76
318.038	421.6
318.115	421.6
318.191	343.54
318.267	309.1
318.343	371.09
318.419	338.95
318.496	384.87
318.572	391.76
318.648	398.64
318.724	355.02
318.8	357.32
318.876	380.28
318.952	325.17
319.028	332.06
319.105	403.24
319.181	361.91
319.257	373.39
319.333	396.35
319.409	382.57
319.485	417.01
319.561	497.37
319.637	394.05
319.713	373.39
319.789	352.72
319.865	396.35
319.94	391.76
320.016	380.28
320.092	380.28
320.168	391.76
320.244	396.35
320.32	334.36
320.396	410.12
320.472	428.49
320.547	394.05
320.623	396.35
320.699	368.8
320.775	361.91
320.851	348.13
320.926	398.64
321.002	322.88
321.078	350.43
321.154	304.51
321.229	394.05
321.305	456.04
321.381	451.45
321.456	400.94
321.532	387.16
321.608	375.68
321.683	375.68
321.759	373.39
321.835	403.24
321.91	355.02
321.986	412.42
322.061	394.05
322.137	453.75
322.212	417.01
322.288	407.83
322.364	380.28
322.439	371.09
322.515	377.98
322.59	382.57
322.666	355.02
322.741	414.72
322.816	419.31
322.892	332.06
322.967	380.28
323.043	430.79
323.118	355.02
323.193	389.46
323.269	479
323.344	437.68
323.42	462.93
323.495	522.63
323.57	428.49
323.646	345.84
323.721	357.32
323.796	488.19
323.871	407.83
323.947	444.56
324.022	458.34
324.097	320.58
324.172	355.02
324.248	332.06
324.323	396.35
324.398	366.5
324.473	366.5
324.548	417.01
324.623	355.02
324.699	419.31
324.774	371.09
324.849	384.87
324.924	368.8
324.999	476.71
325.074	384.87
325.149	387.16
325.224	439.97
325.299	442.27
325.374	403.24
325.449	398.64
325.524	460.64
325.599	407.83
325.674	414.72
325.749	435.38
325.824	387.16
325.899	405.53
325.974	322.88
326.049	437.68
326.124	405.53
326.199	410.12
326.273	410.12
326.348	345.84
326.423	394.05
326.498	483.6
326.573	435.38
326.648	435.38
326.722	412.42
326.797	357.32
326.872	421.6
326.947	396.35
327.021	405.53
327.096	462.93
327.171	394.05
327.245	325.17
327.32	391.76
327.395	373.39
327.47	428.49
327.544	421.6
327.619	456.04
327.693	462.93
327.768	375.68
327.843	426.2
327.917	403.24
327.992	371.09
328.066	428.49
328.141	348.13
328.215	423.9
328.29	371.09
328.364	428.49
328.439	352.72
328.513	407.83
328.588	423.9
328.662	423.9
328.737	361.91
328.811	414.72
328.886	364.2
328.96	387.16
329.035	410.12
329.109	433.08
329.183	391.76
329.258	375.68
329.332	359.61
329.406	375.68
329.481	414.72
329.555	343.54
329.629	343.54
329.704	368.8
329.778	403.24
329.852	410.12
329.926	414.72
330.001	355.02
330.075	419.31
330.149	375.68
330.223	380.28
330.297	410.12
330.372	412.42
330.446	421.6
330.52	417.01
330.594	437.68
330.668	417.01
330.742	371.09
330.816	407.83
330.89	364.2
330.964	403.24
331.038	364.2
331.113	433.08
331.187	373.39
331.261	426.2
331.335	439.97
331.409	435.38
331.483	350.43
331.557	338.95
331.63	373.39
331.704	412.42
331.778	396.35
331.852	377.98
331.926	375.68
332	357.32
332.074	426.2
332.148	423.9
332.222	391.76
332.295	407.83
332.369	403.24
332.443	359.61
332.517	442.27
332.591	389.46
332.665	359.61
332.738	472.12
332.812	336.65
332.886	414.72
332.959	414.72
333.033	460.64
333.107	391.76
333.181	384.87
333.254	332.06
333.328	368.8
333.402	460.64
333.475	361.91
333.549	394.05
333.622	387.16
333.696	373.39
333.77	405.53
333.843	410.12
333.917	375.68
333.99	423.9
334.064	407.83
334.137	400.94
334.211	481.3
334.284	375.68
334.358	391.76
334.431	341.24
334.505	375.68
334.578	364.2
334.652	426.2
334.725	352.72
334.799	387.16
334.872	375.68
334.945	398.64
335.019	368.8
335.092	400.94
335.165	442.27
335.239	366.5
335.312	368.8
335.385	359.61
335.459	426.2
335.532	410.12
335.605	421.6
335.678	479
335.752	364.2
335.825	391.76
335.898	407.83
335.971	412.42
336.045	474.41
336.118	329.76
336.191	439.97
336.264	391.76
336.337	472.12
336.41	435.38
336.483	426.2
336.557	394.05
336.63	403.24
336.703	391.76
336.776	400.94
336.849	368.8
336.922	435.38
336.995	412.42
337.068	361.91
337.141	361.91
337.214	423.9
337.287	355.02
337.36	430.79
337.433	456.04
337.506	382.57
337.579	437.68
337.652	384.87
337.725	417.01
337.797	476.71
337.87	384.87
337.943	352.72
338.016	435.38
338.089	460.64
338.162	426.2
338.235	426.2
338.307	405.53
338.38	419.31
338.453	414.72
338.526	442.27
338.598	382.57
338.671	327.47
338.744	348.13
338.817	442.27
338.889	405.53
338.962	435.38
339.035	417.01
339.107	476.71
339.18	364.2
339.253	382.57
339.325	396.35
339.398	355.02
339.47	384.87
339.543	458.34
339.616	398.64
339.688	359.61
339.761	421.6
339.833	458.34
339.906	412.42
339.978	442.27
340.051	355.02
340.123	366.5
340.196	439.97
340.268	417.01
340.341	350.43
340.413	472.12
340.485	398.64
340.558	334.36
340.63	391.76
340.703	460.64
340.775	377.98
340.847	460.64
340.92	405.53
340.992	403.24
341.064	382.57
341.137	414.72
341.209	396.35
341.281	451.45
341.354	430.79
341.426	407.83
341.498	497.37
341.57	368.8
341.643	345.84
341.715	403.24
341.787	460.64
341.859	396.35
341.931	423.9
342.003	481.3
342.076	421.6
342.148	428.49
342.22	442.27
342.292	456.04
342.364	391.76
342.436	371.09
342.508	421.6
342.58	405.53
342.652	417.01
342.724	421.6
342.796	377.98
342.868	361.91
342.94	377.98
343.012	437.68
343.084	430.79
343.156	414.72
343.228	359.61
343.3	387.16
343.372	412.42
343.444	398.64
343.516	368.8
343.588	373.39
343.66	405.53
343.731	398.64
343.803	410.12
343.875	419.31
343.947	513.45
344.019	437.68
344.09	465.23
344.162	407.83
344.234	430.79
344.306	458.34
344.377	458.34
344.449	439.97
344.521	479
344.593	435.38
344.664	371.09
344.736	384.87
344.808	389.46
344.879	414.72
344.951	368.8
345.023	382.57
345.094	412.42
345.166	410.12
345.237	373.39
345.309	428.49
345.38	384.87
345.452	389.46
345.524	389.46
345.595	394.05
345.667	384.87
345.738	435.38
345.81	410.12
345.881	400.94
345.953	462.93
346.024	412.42
346.095	396.35
346.167	407.83
346.238	462.93
346.31	414.72
346.381	357.32
346.452	373.39
346.524	387.16
346.595	377.98
346.666	433.08
346.738	462.93
346.809	384.87
346.88	410.12
346.952	410.12
347.023	423.9
347.094	414.72
347.165	421.6
347.237	398.64
347.308	403.24
347.379	483.6
347.45	382.57
347.521	421.6
347.593	456.04
347.664	407.83
347.735	449.16
347.806	398.64
347.877	412.42
347.948	380.28
348.019	451.45
348.09	439.97
348.161	497.37
348.233	315.99
348.304	391.76
348.375	405.53
348.446	380.28
348.517	396.35
348.588	405.53
348.659	398.64
348.73	419.31
348.801	419.31
348.871	423.9
348.942	410.12
349.013	433.08
349.084	421.6
349.155	439.97
349.226	423.9
349.297	421.6
349.368	396.35
349.439	453.75
349.509	352.72
349.58	382.57
349.651	403.24
349.722	391.76
349.793	400.94
349.863	437.68
349.934	458.34
350.005	449.16
350.076	481.3
350.146	421.6
350.217	403.24
350.288	389.46
350.358	462.93
350.429	391.76
350.5	403.24
350.57	472.12
350.641	414.72
350.711	474.41
350.782	467.52
350.853	412.42
350.923	414.72
350.994	327.47
351.064	398.64
351.135	453.75
351.205	444.56
351.276	433.08
351.346	394.05
351.417	437.68
351.487	465.23
351.558	428.49
351.628	423.9
351.699	449.16
351.769	412.42
351.84	394.05
351.91	435.38
351.98	419.31
352.051	398.64
352.121	522.63
352.191	481.3
352.262	410.12
352.332	417.01
352.402	460.64
352.473	371.09
352.543	391.76
352.613	398.64
352.683	446.86
352.754	433.08
352.824	373.39
352.894	462.93
352.964	534.11
353.035	435.38
353.105	437.68
353.175	380.28
353.245	456.04
353.315	419.31
353.385	460.64
353.455	453.75
353.526	446.86
353.596	444.56
353.666	417.01
353.736	423.9
353.806	442.27
353.876	435.38
353.946	410.12
354.016	377.98
354.086	433.08
354.156	400.94
354.226	387.16
354.296	426.2
354.366	423.9
354.436	451.45
354.506	430.79
354.576	433.08
354.645	414.72
354.715	419.31
354.785	433.08
354.855	476.71
354.925	474.41
354.995	423.9
355.065	439.97
355.134	419.31
355.204	495.08
355.274	462.93
355.344	428.49
355.414	476.71
355.483	435.38
355.553	458.34
355.623	410.12
355.693	403.24
355.762	403.24
355.832	382.57
355.902	407.83
355.971	421.6
356.041	398.64
356.111	430.79
356.18	467.52
356.25	474.41
356.319	467.52
356.389	405.53
356.459	366.5
356.528	338.95
356.598	559.37
356.667	467.52
356.737	469.82
356.806	371.09
356.876	394.05
356.945	384.87
357.015	421.6
357.084	547.89
357.154	446.86
357.223	490.49
357.292	421.6
357.362	476.71
357.431	444.56
357.501	458.34
357.57	414.72
357.639	490.49
357.709	513.45
357.778	506.56
357.847	412.42
357.917	451.45
357.986	446.86
358.055	449.16
358.124	469.82
358.194	476.71
358.263	442.27
358.332	389.46
358.401	403.24
358.471	488.19
358.54	417.01
358.609	483.6
358.678	437.68
358.747	481.3
358.816	437.68
358.886	437.68
358.955	449.16
359.024	384.87
359.093	460.64
359.162	467.52
359.231	439.97
359.3	375.68
359.369	508.85
359.438	414.72
359.507	481.3
359.576	412.42
359.645	476.71
359.714	483.6
359.783	488.19
359.852	410.12
359.921	439.97
359.99	495.08
360.059	458.34
360.128	446.86
360.197	435.38
360.266	513.45
360.334	504.26
360.403	495.08
360.472	472.12
360.541	501.97
360.61	462.93
360.679	476.71
360.747	430.79
360.816	442.27
360.885	481.3
360.954	451.45
361.022	462.93
361.091	472.12
361.16	451.45
361.228	460.64
361.297	469.82
361.366	465.23
361.434	474.41
361.503	534.11
361.572	465.23
361.64	446.86
361.709	435.38
361.778	476.71
361.846	501.97
361.915	472.12
361.983	472.12
362.052	419.31
362.12	453.75
362.189	481.3
362.257	410.12
362.326	501.97
362.394	462.93
362.463	479
362.531	428.49
362.6	430.79
362.668	439.97
362.737	501.97
362.805	538.7
362.873	527.22
362.942	389.46
363.01	476.71
363.079	522.63
363.147	485.89
363.215	529.52
363.284	492.78
363.352	550.18
363.42	421.6
363.488	545.59
363.557	513.45
363.625	476.71
363.693	541
363.761	522.63
363.83	552.48
363.898	531.81
363.966	490.49
364.034	541
364.102	545.59
364.171	524.93
364.239	614.47
364.307	520.33
364.375	573.14
364.443	524.93
364.511	667.28
364.579	628.25
364.647	600.69
364.715	557.07
364.783	630.54
364.851	660.39
364.919	593.81
364.987	671.87
365.055	687.94
365.123	605.29
365.191	683.35
365.259	614.47
365.327	681.05
365.395	632.84
365.463	655.8
365.531	625.95
365.599	738.45
365.667	749.93
365.735	687.94
365.802	745.34
365.87	795.85
365.938	736.16
366.006	761.41
366.074	743.05
366.142	832.59
366.209	798.15
366.277	837.18
366.345	894.58
366.413	945.09
366.48	903.77
366.548	926.73
366.616	988.72
366.683	924.43
366.751	1027.75
366.819	1039.23
366.886	1105.82
366.954	1096.63
367.022	1000.2
367.089	1133.37
367.157	1094.34
367.224	1094.34
367.292	1227.5
367.36	1220.62
367.427	1259.65
367.495	1241.28
367.562	1273.42
367.63	1252.76
367.697	1367.56
367.765	1314.75
367.832	1406.59
367.9	1523.69
367.967	1402
368.034	1482.36
368.102	1558.13
368.169	1525.99
368.237	1578.79
368.304	1537.47
368.371	1627.01
368.439	1666.04
368.506	1755.59
368.573	1790.03
368.641	1714.26
368.708	1810.69
368.775	2021.92
368.843	2003.56
368.91	1927.79
368.977	2033.4
369.044	2081.62
369.112	2081.62
369.179	2113.76
369.246	2253.82
369.313	2201.01
369.38	2331.88
369.448	2318.11
369.515	2366.32
369.582	2595.93
369.649	2621.18
369.716	2602.81
369.783	2618.89
369.85	2708.43
369.917	2713.02
369.984	2926.55
370.052	2903.59
370.119	2857.67
370.186	2873.74
370.253	2931.14
370.32	3025.28
370.387	3032.17
370.454	3110.23
370.521	3273.25
370.587	3358.2
370.654	3440.86
370.721	3482.19
370.788	3626.83
370.855	3583.21
370.922	3691.12
370.989	3847.25
371.056	3927.61
371.123	3966.64
371.189	4079.15
371.256	4035.52
371.323	4292.68
371.39	4288.08
371.457	4421.25
371.523	4437.33
371.59	4616.41
371.657	4533.76
371.724	4545.24
371.79	4827.65
371.857	4914.9
371.924	5091.69
371.991	5151.38
372.057	5201.9
372.124	5335.07
372.191	5461.35
372.257	5562.37
372.324	5697.83
372.39	5695.54
372.457	5876.92
372.524	5835.6
372.59	6014.68
372.657	6081.27
372.723	6301.69
372.79	6414.19
372.856	6485.37
372.923	6675.93
372.989	6829.77
373.056	6857.32
373.122	6972.12
373.189	7238.46
373.255	7272.9
373.322	7470.35
373.388	7745.88
373.454	7876.75
373.521	7757.36
373.587	8076.5
373.654	8354.32
373.72	8414.01
373.786	8544.89
373.853	8544.89
373.919	8831.89
373.985	8953.58
374.052	9121.18
374.118	9341.6
374.184	9621.71
374.25	9509.21
374.317	9614.83
374.383	10021.22
374.449	10158.98
374.515	10243.93
374.581	10076.32
374.648	10914.37
374.714	10898.3
374.78	11100.35
374.846	11256.47
374.912	11081.98
374.978	11545.77
375.044	11782.26
375.11	12131.25
375.177	12328.71
375.243	12452.69
375.309	12546.83
375.375	13100.17
375.441	13081.8
375.507	13341.25
375.573	13449.16
375.639	13524.93
375.705	13635.14
375.771	14053.01
375.837	14551.25
375.903	14718.86
375.968	14808.4
376.034	14858.91
376.1	15187.24
376.166	15540.83
376.232	15938.04
376.298	16018.4
376.364	16365.09
376.43	16746.23
376.495	16923.03
376.561	16794.45
376.627	17152.63
376.693	17770.25
376.759	17726.63
376.824	17972.3
376.89	18766.72
376.956	18987.14
377.022	19294.8
377.087	19756.3
377.153	19809.11
377.219	20155.81
377.284	20555.31
377.35	21296.92
377.416	21147.68
377.481	21806.64
377.547	21792.86
377.613	22286.5
377.678	22440.34
377.744	22862.8
377.809	23328.89
377.875	23941.93
377.94	24065.91
378.006	24463.12
378.071	24926.91
378.137	25574.39
378.202	25865.98
378.268	26566.27
378.333	26518.05
378.399	26740.76
378.464	27266.55
378.53	27686.72
378.595	28713.03
378.661	28944.93
378.726	29195.2
378.791	29378.88
378.857	30370.75
378.922	30249.06
378.987	31105.48
379.053	31399.37
379.118	31803.46
379.183	32258.07
379.249	32845.85
379.314	33617.31
379.379	33677.01
379.444	34517.35
379.51	34717.1
379.575	35497.74
379.64	35562.03
379.705	35950.06
379.771	36682.48
379.836	37205.97
379.901	37513.64
379.966	38491.74
380.031	38840.73
380.096	39120.85
380.161	40186.19
380.227	40239
380.292	40810.71
380.357	41251.54
380.422	41896.72
380.487	42034.48
380.552	42436.28
380.617	43141.16
380.682	44215.69
380.747	44188.14
380.812	44270.79
380.877	44624.38
380.942	45099.65
381.007	45379.77
381.072	45393.54
381.137	46651.76
381.202	46773.45
381.266	47159.17
381.331	47354.34
381.396	47811.24
381.461	47783.69
381.526	48353.1
381.591	48339.32
381.656	48571.22
381.72	48720.46
381.785	49372.53
381.85	49423.04
381.915	49792.7
381.979	49886.83
382.044	49928.16
382.109	49772.03
382.174	50192.2
382.238	50346.04
382.303	50479.2
382.368	50651.41
382.432	50316.19
382.497	50646.81
382.562	50254.2
382.626	50284.04
382.691	50316.19
382.756	49928.16
382.82	50281.75
382.885	50134.8
382.949	50210.57
383.014	49597.54
383.078	49572.28
383.143	49565.39
383.208	48890.37
383.272	48585
383.337	48607.96
383.401	48252.08
383.465	47581.64
383.53	47152.29
383.594	47345.15
383.659	46658.64
383.723	46194.85
383.788	46158.11
383.852	45007.81
383.916	45159.35
383.981	45682.84
384.045	44564.68
384.109	44403.96
384.174	43572.81
384.238	42964.37
384.302	42041.37
384.367	41839.32
384.431	40973.73
384.495	40682.13
384.56	39970.37
384.624	39683.37
384.688	38650.16
384.752	38367.75
384.816	37189.9
384.881	36452.88
384.945	35830.66
385.009	35552.85
385.073	34710.21
385.137	34019.11
385.201	33633.38
385.265	33100.71
385.33	32696.61
385.394	32145.57
385.458	31135.32
385.522	30979.2
385.586	30460.3
385.65	29918.44
385.714	29349.03
385.778	29133.2
385.842	28283.68
385.906	27909.43
385.97	27445.64
386.034	26802.75
386.098	26607.59
386.162	25847.61
386.226	25801.69
386.29	24977.43
386.354	24403.42
386.417	24013.1
386.481	23765.13
386.545	23140.62
386.609	22977.6
386.673	22809.99
386.737	22279.62
386.8	21838.78
386.864	21526.52
386.928	21058.14
386.992	20897.42
387.056	20658.63
387.119	20438.22
387.183	20034.12
387.247	19634.61
387.31	19411.9
387.374	19320.06
387.438	18672.58
387.502	18305.22
387.565	17981.49
387.629	18018.22
387.692	17701.37
387.756	17602.64
387.82	17386.82
387.883	17531.47
387.947	17003.39
388.01	16776.08
388.074	16181.41
388.138	16280.14
388.201	15887.52
388.265	15894.41
388.328	15777.32
388.392	15414.55
388.455	15102.29
388.519	15460.47
388.582	15024.23
388.645	14936.98
388.709	14998.97
388.772	14649.98
388.836	14530.58
388.899	14633.9
388.962	14213.73
389.026	13924.44
389.089	13938.21
389.153	13837.19
389.216	13547.89
389.279	13568.56
389.343	13189.71
389.406	13467.53
389.469	13095.58
389.532	13042.77
389.596	12973.89
389.659	12836.13
389.722	12808.58
389.785	12521.57
389.848	12510.09
389.912	12025.64
389.975	11988.9
390.038	11874.1
390.101	12220.8
390.164	11913.13
390.227	12101.41
390.291	12027.93
390.354	11796.04
390.417	11644.5
390.48	11435.56
390.543	11378.16
390.606	11534.29
390.669	11196.78
390.732	11355.2
390.795	11238.11
390.858	11217.44
390.921	10937.33
390.984	10912.07
391.047	10907.48
391.11	10703.14
391.173	10755.94
391.236	10464.35
391.299	10471.24
391.362	10560.78
391.424	10269.19
391.487	10214.09
391.55	10181.94
391.613	9952.34
391.676	9945.45
391.739	9860.5
391.802	10080.92
391.864	9674.52
391.927	9766.36
391.99	9798.51
392.053	9421.96
392.115	9426.55
392.178	9153.33
392.241	9116.59
392.304	9196.95
392.366	9095.93
392.429	8992.61
392.492	8948.98
392.554	9017.86
392.617	8634.43
392.68	8455.34
392.742	8515.04
392.805	8556.37
392.867	8494.37
392.93	8400.24
392.992	8416.31
393.055	8230.33
393.118	7989.25
393.18	8117.83
393.243	7800.98
393.305	7743.58
393.368	7738.99
393.43	7755.06
393.493	7530.05
393.555	7592.04
393.618	7362.44
393.68	7291.27
393.742	7201.72
393.805	7121.36
393.867	7190.24
393.93	6983.6
393.992	7015.74
394.054	6705.78
394.117	6724.15
394.179	6607.05
394.241	6388.93
394.304	6460.11
394.366	6476.18
394.428	6237.4
394.49	6232.8
394.553	6056.01
394.615	6140.96
394.677	6035.35
394.739	6049.12
394.802	5794.27
394.864	5842.48
394.926	5766.71
394.988	5750.64
395.05	5472.83
395.112	5413.13
395.174	5392.47
395.237	5261.59
395.299	5158.27
395.361	5247.82
395.423	5199.6
395.485	4882.75
395.547	4981.48
395.609	4779.43
395.671	4827.65
395.733	4772.54
395.795	4549.83
395.857	4538.35
395.919	4441.92
395.981	4485.54
396.043	4393.7
396.105	4253.64
396.167	4304.16
396.229	4159.51
396.291	4120.48
396.352	4097.52
396.414	3941.39
396.476	3851.84
396.538	4003.38
396.6	3856.44
396.662	3766.89
396.724	3743.93
396.785	3720.97
396.847	3636.02
396.909	3562.55
396.971	3587.8
397.032	3342.13
397.094	3528.11
397.156	3305.39
397.218	3447.75
397.279	3397.23
397.341	3277.84
397.403	3174.52
397.464	3135.49
397.526	3041.35
397.588	3107.94
397.649	3071.2
397.711	2915.07
397.772	2967.88
397.834	2921.96
397.896	2949.51
397.957	2866.85
398.019	2880.63
398.08	2807.16
398.142	2701.54
398.203	2655.62
398.265	2724.5
398.326	2758.94
398.388	2680.88
398.449	2637.25
398.511	2660.21
398.572	2474.24
398.633	2490.31
398.695	2488.01
398.756	2508.68
398.818	2336.48
398.879	2453.57
398.94	2398.47
399.002	2460.46
399.063	2412.25
399.124	2412.25
399.186	2366.32
399.247	2256.12
399.308	2396.17
399.369	2253.82
399.431	2116.06
399.492	2157.39
399.553	2207.9
399.614	2212.49
399.676	2155.09
399.737	2150.5
399.798	2125.24
399.859	2168.87
399.92	2060.96
399.981	2120.65
400.042	2063.25
400.104	2099.99
400.165	2026.52
400.226	2104.58
400.287	2056.36
400.348	1996.67
400.409	1969.12
400.47	1996.67
400.531	2063.25
400.592	2111.47
400.653	1925.49
400.714	1874.98
400.775	1966.82
400.836	1927.79
400.897	2010.44
400.958	1950.75
401.019	1934.68
401.08	1916.31
401.141	1886.46
401.201	1794.62
401.262	1833.65
401.323	1794.62
401.384	1831.35
401.445	1874.98
401.506	1879.57
401.567	1711.96
401.627	1750.99
401.688	1718.85
401.749	1686.71
401.81	1721.15
401.87	1801.51
401.931	1675.23
401.992	1728.03
402.053	1803.8
402.113	1709.67
402.174	1714.26
402.235	1663.75
402.295	1686.71
402.356	1695.89
402.417	1613.23
402.477	1679.82
402.538	1617.83
402.598	1707.37
402.659	1652.27
402.719	1597.16
402.78	1620.12
402.841	1590.27
402.901	1569.61
402.962	1519.1
403.022	1555.83
403.083	1562.72
403.143	1562.72
403.204	1514.51
403.264	1553.54
403.324	1493.84
403.385	1447.92
403.445	1512.21
403.506	1519.1
403.566	1484.66
403.627	1546.65
403.687	1441.03
403.747	1500.73
403.808	1484.66
403.868	1509.91
403.928	1429.55
403.989	1441.03
404.049	1333.12
404.109	1252.76
404.169	1434.14
404.23	1486.95
404.29	1450.22
404.35	1383.63
404.41	1305.57
404.47	1402
404.531	1317.05
404.591	1385.93
404.651	1362.97
404.711	1291.79
404.771	1344.6
404.831	1287.2
404.892	1294.09
404.952	1314.75
405.012	1335.42
405.072	1305.57
405.132	1296.38
405.192	1271.13
405.252	1167.81
405.312	1264.24
405.372	1218.32
405.432	1287.2
405.492	1250.46
405.552	1131.07
405.612	1243.58
405.672	1059.9
405.732	1158.62
405.792	1190.77
405.852	1121.89
405.912	1075.97
405.971	1112.7
406.031	1094.34
406.091	1133.37
406.151	1034.64
406.211	1117.3
406.271	1062.19
406.33	1053.01
406.39	1057.6
406.45	1027.75
406.51	1018.57
406.57	1046.12
406.629	1004.79
406.689	1002.5
406.749	945.09
406.808	986.42
406.868	1013.98
406.928	924.43
406.988	997.9
407.047	926.73
407.107	965.76
407.166	1043.82
407.226	1055.3
407.286	986.42
407.345	935.91
407.405	942.8
407.464	922.13
407.524	922.13
407.584	864.73
407.643	991.02
407.703	857.85
407.762	915.25
407.822	887.69
407.881	864.73
407.941	811.93
408	837.18
408.059	899.17
408.119	853.25
408.178	850.96
408.238	860.14
408.297	883.1
408.356	867.03
408.416	848.66
408.475	825.7
408.535	798.15
408.594	759.12
408.653	832.59
408.712	832.59
408.772	825.7
408.831	738.45
408.89	710.9
408.95	830.29
409.009	733.86
409.068	867.03
409.127	795.85
409.186	704.01
409.246	782.08
409.305	729.27
409.364	717.79
409.423	802.74
409.482	784.37
409.541	722.38
409.6	791.26
409.66	754.53
409.719	745.34
409.778	690.24
409.837	637.43
409.896	690.24
409.955	667.28
410.014	786.67
410.073	704.01
410.132	625.95
410.191	736.16
410.25	784.37
410.309	674.17
410.368	697.13
410.427	708.61
410.486	722.38
410.545	713.2
410.603	763.71
410.662	600.69
410.721	612.17
410.78	660.39
410.839	637.43
410.898	713.2
410.957	667.28
411.015	600.69
411.074	596.1
411.133	676.46
411.192	660.39
411.25	710.9
411.309	589.21
411.368	628.25
411.427	609.88
411.485	563.96
411.544	671.87
411.603	667.28
411.661	653.5
411.72	566.25
411.779	570.85
411.837	676.46
411.896	623.65
411.955	616.77
412.013	577.73
412.072	616.77
412.13	651.21
412.189	651.21
412.247	566.25
412.306	614.47
412.364	566.25
412.423	605.29
412.481	655.8
412.54	536.41
412.598	664.98
412.657	499.67
412.715	586.92
412.774	648.91
412.832	520.33
412.891	635.13
412.949	575.44
413.007	591.51
413.066	554.77
413.124	499.67
413.182	566.25
413.241	605.29
413.299	584.62
413.357	616.77
413.416	543.29
413.474	550.18
413.532	619.06
413.59	568.55
413.649	593.81
413.707	529.52
413.765	582.33
413.823	534.11
413.881	609.88
413.94	522.63
413.998	499.67
414.056	561.66
414.114	497.37
414.172	479
414.23	550.18
414.288	515.74
414.347	529.52
414.405	570.85
414.463	479
414.521	527.22
414.579	488.19
414.637	554.77
414.695	561.66
414.753	584.62
414.811	529.52
414.869	497.37
414.927	538.7
414.985	552.48
415.043	490.49
415.101	527.22
415.158	497.37
415.216	545.59
415.274	520.33
415.332	501.97
415.39	506.56
415.448	520.33
415.506	552.48
415.563	513.45
415.621	527.22
415.679	534.11
415.737	495.08
415.795	524.93
415.852	522.63
415.91	483.6
415.968	483.6
416.026	472.12
416.083	488.19
416.141	513.45
416.199	485.89
416.256	518.04
416.314	511.15
416.372	396.35
416.429	476.71
416.487	476.71
416.544	442.27
416.602	536.41
416.66	511.15
416.717	504.26
416.775	499.67
416.832	488.19
416.89	451.45
416.947	513.45
417.005	485.89
417.062	511.15
417.12	460.64
417.177	474.41
417.235	472.12
417.292	490.49
417.35	536.41
417.407	520.33
417.464	462.93
417.522	456.04
417.579	511.15
417.637	451.45
417.694	462.93
417.751	511.15
417.809	467.52
417.866	490.49
417.923	501.97
417.981	534.11
418.038	476.71
418.095	508.85
418.152	506.56
418.21	472.12
418.267	451.45
418.324	444.56
418.381	433.08
418.438	520.33
418.496	534.11
418.553	465.23
418.61	479
418.667	405.53
418.724	467.52
418.781	479
418.838	504.26
418.895	428.49
418.952	423.9
419.01	467.52
419.067	433.08
419.124	403.24
419.181	504.26
419.238	497.37
419.295	453.75
419.352	451.45
419.409	403.24
419.466	444.56
419.523	382.57
419.579	492.78
419.636	446.86
419.693	481.3
419.75	465.23
419.807	481.3
419.864	444.56
419.921	467.52
419.978	456.04
420.034	439.97
420.091	405.53
420.148	437.68
420.205	439.97
420.262	458.34
420.318	462.93
420.375	423.9
420.432	412.42
420.489	485.89
420.545	462.93
420.602	451.45
420.659	460.64
420.715	467.52
420.772	398.64
420.829	410.12
420.885	423.9
420.942	451.45
420.999	412.42
421.055	405.53
421.112	412.42
421.168	437.68
421.225	469.82
421.282	462.93
421.338	469.82
421.395	467.52
421.451	458.34
421.508	414.72
421.564	442.27
421.621	387.16
421.677	403.24
421.734	407.83
421.79	382.57
421.846	433.08
421.903	377.98
421.959	453.75
422.016	400.94
422.072	435.38
422.128	469.82
422.185	364.2
422.241	391.76
422.297	421.6
422.354	488.19
422.41	410.12
422.466	394.05
422.523	435.38
422.579	417.01
422.635	405.53
422.691	371.09
422.748	476.71
422.804	368.8
422.86	405.53
422.916	396.35
422.972	419.31
423.029	398.64
423.085	414.72
423.141	437.68
423.197	451.45
423.253	398.64
423.309	437.68
423.365	410.12
423.421	458.34
423.477	469.82
423.533	368.8
423.589	398.64
423.645	421.6
423.701	357.32
423.757	391.76
423.813	479
423.869	442.27
423.925	403.24
423.981	417.01
424.037	476.71
424.093	373.39
424.149	396.35
424.205	371.09
424.261	400.94
424.317	394.05
424.373	394.05
424.428	437.68
424.484	410.12
424.54	357.32
424.596	426.2
424.652	453.75
424.708	426.2
424.763	371.09
424.819	444.56
424.875	377.98
424.931	377.98
424.986	433.08
425.042	414.72
425.098	377.98
425.153	400.94
425.209	456.04
425.265	368.8
425.32	327.47
425.376	410.12
425.432	435.38
425.487	366.5
425.543	387.16
425.598	417.01
425.654	430.79
425.709	373.39
425.765	403.24
425.82	359.61
425.876	405.53
425.932	389.46
425.987	348.13
426.042	421.6
426.098	437.68
426.153	400.94
426.209	428.49
426.264	412.42
426.32	394.05
426.375	398.64
426.43	417.01
426.486	403.24
426.541	384.87
426.597	366.5
426.652	400.94
426.707	373.39
426.763	444.56
426.818	412.42
426.873	449.16
426.928	417.01
426.984	325.17
427.039	405.53
427.094	426.2
427.149	398.64
427.205	332.06
427.26	359.61
427.315	387.16
427.37	373.39
427.425	364.2
427.48	373.39
427.536	446.86
427.591	469.82
427.646	389.46
427.701	357.32
427.756	371.09
427.811	426.2
427.866	437.68
427.921	373.39
427.976	426.2
428.031	400.94
428.086	410.12
428.141	467.52
428.196	398.64
428.251	350.43
428.306	366.5
428.361	458.34
428.416	412.42
428.471	373.39
428.526	364.2
428.581	407.83
428.636	361.91
428.691	389.46
428.745	384.87
428.8	380.28
428.855	359.61
428.91	474.41
428.965	373.39
429.02	375.68
429.074	446.86
429.129	350.43
429.184	366.5
429.239	394.05
429.293	439.97
429.348	426.2
429.403	332.06
429.457	472.12
429.512	348.13
429.567	334.36
429.621	387.16
429.676	382.57
429.731	364.2
429.785	334.36
429.84	332.06
429.895	368.8
429.949	343.54
430.004	421.6
430.058	364.2
430.113	364.2
430.167	377.98
430.222	451.45
430.276	338.95
430.331	371.09
430.385	348.13
430.44	364.2
430.494	414.72
430.549	361.91
430.603	322.88
430.657	398.64
430.712	389.46
430.766	373.39
430.821	400.94
430.875	400.94
430.929	377.98
430.984	327.47
431.038	389.46
431.092	325.17
431.147	421.6
431.201	377.98
431.255	462.93
431.309	359.61
431.364	433.08
431.418	389.46
431.472	382.57
431.526	373.39
431.581	368.8
431.635	410.12
431.689	400.94
431.743	407.83
431.797	361.91
431.851	373.39
431.906	357.32
431.96	361.91
432.014	396.35
432.068	368.8
432.122	371.09
432.176	421.6
432.23	423.9
432.284	382.57
432.338	364.2
432.392	437.68
432.446	384.87
432.5	414.72
432.554	458.34
432.608	366.5
432.662	361.91
432.716	343.54
432.77	327.47
432.824	384.87
432.878	338.95
432.931	400.94
432.985	396.35
433.039	366.5
433.093	371.09
433.147	394.05
433.201	380.28
433.254	350.43
433.308	394.05
433.362	377.98
433.416	439.97
433.47	423.9
433.523	355.02
433.577	398.64
433.631	382.57
433.684	398.64
433.738	400.94
433.792	430.79
433.846	400.94
433.899	315.99
433.953	345.84
434.006	371.09
434.06	398.64
434.114	421.6
434.167	421.6
434.221	421.6
