Data from FLMS155811_13-06-47-497.txt Node
Date: Wed Mar 25 13:06:47 MDT 2020
User: ECEn Student
Spectrometer: FLMS15581
Trigger mode: 0
Integration Time (sec): 1.000000E-1
Scans to average: 1
Electric dark correction enabled: true
Nonlinearity correction enabled: false
Boxcar width: 0
XAxis mode: Wavelengths
Number of Pixels in Spectrum: 2048
>>>>>Begin Spectral Data<<<<<
298.026	17.22
298.106	17.22
298.185	17.22
298.265	-81.51
298.344	1.15
298.424	-51.66
298.503	-72.32
298.583	-8.04
298.662	-42.48
298.741	-83.8
298.821	-76.92
298.9	-42.48
298.98	-102.17
299.059	-21.81
299.138	-10.33
299.217	5.74
299.297	42.48
299.376	58.55
299.455	125.13
299.535	150.39
299.614	129.72
299.693	189.42
299.772	125.13
299.852	171.05
299.931	198.6
300.01	177.94
300.089	184.83
300.168	308.81
300.247	299.63
300.327	281.26
300.406	262.89
300.485	251.41
300.564	340.96
300.643	336.37
300.722	363.92
300.801	318
300.88	340.96
300.959	329.48
301.038	336.37
301.117	368.51
301.196	363.92
301.275	352.44
301.354	320.29
301.433	354.73
301.512	435.09
301.591	331.77
301.67	409.84
301.749	398.36
301.828	405.25
301.907	400.65
301.985	398.36
302.064	322.59
302.143	327.18
302.222	398.36
302.301	377.69
302.38	391.47
302.458	398.36
302.537	386.88
302.616	386.88
302.695	357.03
302.773	391.47
302.852	419.02
302.931	329.48
303.01	352.44
303.088	379.99
303.167	400.65
303.246	419.02
303.324	343.25
303.403	363.92
303.481	354.73
303.56	409.84
303.639	391.47
303.717	272.08
303.796	409.84
303.874	336.37
303.953	354.73
304.032	327.18
304.11	336.37
304.189	327.18
304.267	382.29
304.346	377.69
304.424	340.96
304.502	322.59
304.581	295.04
304.659	363.92
304.738	361.62
304.816	370.81
304.895	329.48
304.973	288.15
305.051	400.65
305.13	336.37
305.208	363.92
305.286	260.6
305.365	363.92
305.443	354.73
305.521	345.55
305.6	281.26
305.678	354.73
305.756	290.45
305.834	318
305.913	373.1
305.991	318
306.069	377.69
306.147	322.59
306.225	396.06
306.304	327.18
306.382	331.77
306.46	338.66
306.538	366.21
306.616	366.21
306.694	373.1
306.772	324.89
306.85	347.85
306.929	324.89
307.007	352.44
307.085	382.29
307.163	345.55
307.241	370.81
307.319	318
307.397	382.29
307.475	419.02
307.553	345.55
307.631	373.1
307.709	373.1
307.786	340.96
307.864	350.14
307.942	386.88
308.02	432.8
308.098	373.1
308.176	361.62
308.254	375.4
308.332	343.25
308.409	393.77
308.487	405.25
308.565	345.55
308.643	379.99
308.721	354.73
308.798	366.21
308.876	407.54
308.954	419.02
309.032	354.73
309.109	409.84
309.187	398.36
309.265	327.18
309.342	354.73
309.42	299.63
309.498	386.88
309.575	295.04
309.653	396.06
309.731	391.47
309.808	340.96
309.886	320.29
309.963	352.44
310.041	370.81
310.119	423.61
310.196	389.17
310.274	343.25
310.351	386.88
310.429	313.41
310.506	384.58
310.584	363.92
310.661	382.29
310.738	384.58
310.816	361.62
310.893	389.17
310.971	382.29
311.048	345.55
311.126	370.81
311.203	340.96
311.28	322.59
311.358	368.51
311.435	423.61
311.512	391.47
311.59	389.17
311.667	462.65
311.744	292.74
311.821	370.81
311.899	382.29
311.976	363.92
312.053	373.1
312.13	384.58
312.208	350.14
312.285	377.69
312.362	350.14
312.439	391.47
312.516	435.09
312.593	370.81
312.671	393.77
312.748	407.54
312.825	382.29
312.902	386.88
312.979	359.33
313.056	347.85
313.133	382.29
313.21	386.88
313.287	357.03
313.364	421.32
313.441	338.66
313.518	373.1
313.595	370.81
313.672	412.13
313.749	324.89
313.826	357.03
313.903	432.8
313.98	304.22
314.057	416.73
314.134	386.88
314.211	393.77
314.287	439.69
314.364	393.77
314.441	400.65
314.518	379.99
314.595	361.62
314.672	329.48
314.748	421.32
314.825	368.51
314.902	327.18
314.979	382.29
315.055	412.13
315.132	398.36
315.209	421.32
315.286	405.25
315.362	363.92
315.439	425.91
315.516	414.43
315.592	379.99
315.669	329.48
315.746	414.43
315.822	363.92
315.899	370.81
315.975	423.61
316.052	370.81
316.128	366.21
316.205	441.98
316.282	405.25
316.358	384.58
316.435	423.61
316.511	347.85
316.588	375.4
316.664	366.21
316.741	425.91
316.817	435.09
316.893	393.77
316.97	370.81
317.046	315.7
317.123	331.77
317.199	336.37
317.275	379.99
317.352	414.43
317.428	391.47
317.504	407.54
317.581	386.88
317.657	400.65
317.733	361.62
317.81	340.96
317.886	409.84
317.962	393.77
318.038	400.65
318.115	391.47
318.191	435.09
318.267	391.47
318.343	398.36
318.419	368.51
318.496	368.51
318.572	354.73
318.648	400.65
318.724	391.47
318.8	407.54
318.876	352.44
318.952	345.55
319.028	345.55
319.105	409.84
319.181	363.92
319.257	446.57
319.333	382.29
319.409	400.65
319.485	419.02
319.561	391.47
319.637	414.43
319.713	377.69
319.789	382.29
319.865	405.25
319.94	308.81
320.016	379.99
320.092	402.95
320.168	405.25
320.244	407.54
320.32	386.88
320.396	405.25
320.472	407.54
320.547	343.25
320.623	428.21
320.699	416.73
320.775	398.36
320.851	327.18
320.926	345.55
321.002	455.76
321.078	483.31
321.154	373.1
321.229	327.18
321.305	377.69
321.381	396.06
321.456	400.65
321.532	382.29
321.608	386.88
321.683	334.07
321.759	453.46
321.835	331.77
321.91	363.92
321.986	370.81
322.061	391.47
322.137	428.21
322.212	366.21
322.288	386.88
322.364	419.02
322.439	409.84
322.515	363.92
322.59	379.99
322.666	407.54
322.741	391.47
322.816	428.21
322.892	419.02
322.967	432.8
323.043	423.61
323.118	382.29
323.193	432.8
323.269	400.65
323.344	398.36
323.42	370.81
323.495	446.57
323.57	398.36
323.646	354.73
323.721	386.88
323.796	437.39
323.871	414.43
323.947	441.98
324.022	382.29
324.097	430.5
324.172	451.17
324.248	407.54
324.323	435.09
324.398	419.02
324.473	379.99
324.548	425.91
324.623	377.69
324.699	331.77
324.774	382.29
324.849	409.84
324.924	414.43
324.999	407.54
325.074	393.77
325.149	428.21
325.224	428.21
325.299	361.62
325.374	359.33
325.449	370.81
325.524	359.33
325.599	400.65
325.674	354.73
325.749	453.46
325.824	391.47
325.899	361.62
325.974	441.98
326.049	396.06
326.124	373.1
326.199	483.31
326.273	414.43
326.348	393.77
326.423	425.91
326.498	441.98
326.573	382.29
326.648	425.91
326.722	448.87
326.797	350.14
326.872	389.17
326.947	386.88
327.021	423.61
327.096	416.73
327.171	439.69
327.245	405.25
327.32	453.46
327.395	412.13
327.47	336.37
327.544	444.28
327.619	430.5
327.693	478.72
327.768	499.38
327.843	441.98
327.917	363.92
327.992	393.77
328.066	407.54
328.141	446.57
328.215	421.32
328.29	446.57
328.364	370.81
328.439	451.17
328.513	373.1
328.588	435.09
328.662	382.29
328.737	428.21
328.811	407.54
328.886	354.73
328.96	400.65
329.035	409.84
329.109	423.61
329.183	373.1
329.258	437.39
329.332	423.61
329.406	363.92
329.481	334.07
329.555	405.25
329.629	396.06
329.704	448.87
329.778	382.29
329.852	363.92
329.926	379.99
330.001	462.65
330.075	416.73
330.149	409.84
330.223	391.47
330.297	396.06
330.372	464.94
330.446	382.29
330.52	354.73
330.594	382.29
330.668	453.46
330.742	423.61
330.816	373.1
330.89	382.29
330.964	464.94
331.038	391.47
331.113	425.91
331.187	382.29
331.261	414.43
331.335	377.69
331.409	340.96
331.483	386.88
331.557	414.43
331.63	389.17
331.704	407.54
331.778	435.09
331.852	444.28
331.926	439.69
332	373.1
332.074	363.92
332.148	386.88
332.222	419.02
332.295	389.17
332.369	359.33
332.443	428.21
332.517	407.54
332.591	405.25
332.665	363.92
332.738	407.54
332.812	409.84
332.886	441.98
332.959	430.5
333.033	405.25
333.107	419.02
333.181	446.57
333.254	338.66
333.328	347.85
333.402	375.4
333.475	363.92
333.549	386.88
333.622	398.36
333.696	453.46
333.77	352.44
333.843	419.02
333.917	435.09
333.99	373.1
334.064	446.57
334.137	428.21
334.211	391.47
334.284	428.21
334.358	382.29
334.431	405.25
334.505	432.8
334.578	377.69
334.652	405.25
334.725	405.25
334.799	384.58
334.872	361.62
334.945	366.21
335.019	412.13
335.092	412.13
335.165	379.99
335.239	405.25
335.312	343.25
335.385	393.77
335.459	407.54
335.532	455.76
335.605	361.62
335.678	409.84
335.752	389.17
335.825	354.73
335.898	382.29
335.971	382.29
336.045	322.59
336.118	396.06
336.191	386.88
336.264	428.21
336.337	382.29
336.41	416.73
336.483	402.95
336.557	370.81
336.63	400.65
336.703	386.88
336.776	386.88
336.849	407.54
336.922	478.72
336.995	377.69
337.068	448.87
337.141	407.54
337.214	414.43
337.287	416.73
337.36	416.73
337.433	398.36
337.506	400.65
337.579	379.99
337.652	487.9
337.725	451.17
337.797	432.8
337.87	396.06
337.943	368.51
338.016	476.42
338.089	393.77
338.162	435.09
338.235	370.81
338.307	352.44
338.38	347.85
338.453	370.81
338.526	409.84
338.598	409.84
338.671	432.8
338.744	366.21
338.817	363.92
338.889	350.14
338.962	391.47
339.035	375.4
339.107	361.62
339.18	391.47
339.253	412.13
339.325	386.88
339.398	366.21
339.47	437.39
339.543	419.02
339.616	370.81
339.688	370.81
339.761	412.13
339.833	423.61
339.906	386.88
339.978	377.69
340.051	382.29
340.123	416.73
340.196	458.05
340.268	366.21
340.341	393.77
340.413	419.02
340.485	483.31
340.558	393.77
340.63	347.85
340.703	439.69
340.775	382.29
340.847	400.65
340.92	393.77
340.992	430.5
341.064	412.13
341.137	423.61
341.209	377.69
341.281	343.25
341.354	375.4
341.426	448.87
341.498	476.42
341.57	425.91
341.643	432.8
341.715	402.95
341.787	435.09
341.859	412.13
341.931	304.22
342.003	430.5
342.076	467.24
342.148	382.29
342.22	402.95
342.292	393.77
342.364	421.32
342.436	448.87
342.508	446.57
342.58	430.5
342.652	448.87
342.724	407.54
342.796	389.17
342.868	405.25
342.94	379.99
343.012	435.09
343.084	460.35
343.156	377.69
343.228	462.65
343.3	428.21
343.372	382.29
343.444	352.44
343.516	343.25
343.588	386.88
343.66	400.65
343.731	451.17
343.803	400.65
343.875	363.92
343.947	357.03
344.019	437.39
344.09	439.69
344.162	428.21
344.234	419.02
344.306	444.28
344.377	423.61
344.449	425.91
344.521	455.76
344.593	391.47
344.664	419.02
344.736	366.21
344.808	455.76
344.879	451.17
344.951	396.06
345.023	391.47
345.094	462.65
345.166	423.61
345.237	462.65
345.309	393.77
345.38	414.43
345.452	409.84
345.524	389.17
345.595	382.29
345.667	402.95
345.738	375.4
345.81	446.57
345.881	451.17
345.953	423.61
346.024	379.99
346.095	379.99
346.167	423.61
346.238	398.36
346.31	421.32
346.381	428.21
346.452	386.88
346.524	425.91
346.595	400.65
346.666	421.32
346.738	382.29
346.809	462.65
346.88	396.06
346.952	464.94
347.023	398.36
347.094	414.43
347.165	451.17
347.237	412.13
347.308	460.35
347.379	437.39
347.45	361.62
347.521	407.54
347.593	462.65
347.664	421.32
347.735	455.76
347.806	400.65
347.877	469.53
347.948	469.53
348.019	458.05
348.09	414.43
348.161	464.94
348.233	462.65
348.304	389.17
348.375	545.3
348.446	481.01
348.517	446.57
348.588	474.13
348.659	391.47
348.73	432.8
348.801	405.25
348.871	437.39
348.942	414.43
349.013	405.25
349.084	375.4
349.155	407.54
349.226	405.25
349.297	435.09
349.368	444.28
349.439	370.81
349.509	432.8
349.58	458.05
349.651	409.84
349.722	377.69
349.793	432.8
349.863	375.4
349.934	435.09
350.005	446.57
350.076	407.54
350.146	416.73
350.217	481.01
350.288	451.17
350.358	432.8
350.429	446.57
350.5	446.57
350.57	446.57
350.641	402.95
350.711	439.69
350.782	455.76
350.853	432.8
350.923	409.84
350.994	494.79
351.064	430.5
351.135	469.53
351.205	425.91
351.276	419.02
351.346	425.91
351.417	384.58
351.487	384.58
351.558	423.61
351.628	386.88
351.699	373.1
351.769	490.2
351.84	448.87
351.91	402.95
351.98	435.09
352.051	350.14
352.121	377.69
352.191	439.69
352.262	430.5
352.332	409.84
352.402	435.09
352.473	439.69
352.543	467.24
352.613	416.73
352.683	478.72
352.754	386.88
352.824	421.32
352.894	448.87
352.964	432.8
353.035	430.5
353.105	402.95
353.175	435.09
353.245	393.77
353.315	430.5
353.385	444.28
353.455	439.69
353.526	419.02
353.596	416.73
353.666	453.46
353.736	414.43
353.806	481.01
353.876	396.06
353.946	368.51
354.016	547.6
354.086	366.21
354.156	455.76
354.226	389.17
354.296	425.91
354.366	506.27
354.436	435.09
354.506	400.65
354.576	409.84
354.645	409.84
354.715	393.77
354.785	492.49
354.855	464.94
354.925	373.1
354.995	464.94
355.065	421.32
355.134	483.31
355.204	497.09
355.274	423.61
355.344	464.94
355.414	448.87
355.483	409.84
355.553	370.81
355.623	462.65
355.693	441.98
355.762	398.36
355.832	487.9
355.902	405.25
355.971	428.21
356.041	508.57
356.111	377.69
356.18	361.62
356.25	384.58
356.319	483.31
356.389	400.65
356.459	448.87
356.528	446.57
356.598	448.87
356.667	437.39
356.737	441.98
356.806	435.09
356.876	419.02
356.945	481.01
357.015	396.06
357.084	435.09
357.154	441.98
357.223	432.8
357.292	455.76
357.362	467.24
357.431	437.39
357.501	453.46
357.57	412.13
357.639	437.39
357.709	425.91
357.778	423.61
357.847	451.17
357.917	462.65
357.986	428.21
358.055	428.21
358.124	421.32
358.194	458.05
358.263	432.8
358.332	497.09
358.401	547.6
358.471	549.89
358.54	485.61
358.609	462.65
358.678	485.61
358.747	455.76
358.816	499.38
358.886	471.83
358.955	478.72
359.024	481.01
359.093	363.92
359.162	492.49
359.231	464.94
359.3	481.01
359.369	405.25
359.438	483.31
359.507	497.09
359.576	432.8
359.645	414.43
359.714	421.32
359.783	451.17
359.852	490.2
359.921	476.42
359.99	499.38
360.059	444.28
360.128	444.28
360.197	428.21
360.266	384.58
360.334	501.68
360.403	432.8
360.472	405.25
360.541	455.76
360.61	499.38
360.679	460.35
360.747	462.65
360.816	453.46
360.885	451.17
360.954	428.21
361.022	384.58
361.091	428.21
361.16	396.06
361.228	416.73
361.297	419.02
361.366	412.13
361.434	510.86
361.503	485.61
361.572	419.02
361.64	469.53
361.709	435.09
361.778	497.09
361.846	379.99
361.915	451.17
361.983	425.91
362.052	510.86
362.12	402.95
362.189	501.68
362.257	481.01
362.326	510.86
362.394	446.57
362.463	526.93
362.531	487.9
362.6	451.17
362.668	487.9
362.737	478.72
362.805	483.31
362.873	526.93
362.942	490.2
363.01	494.79
363.079	531.53
363.147	533.82
363.215	441.98
363.284	497.09
363.352	549.89
363.42	485.61
363.488	430.5
363.557	481.01
363.625	545.3
363.693	508.57
363.761	582.04
363.83	494.79
363.898	492.49
363.966	538.41
364.034	552.19
364.102	524.64
364.171	531.53
364.239	648.62
364.307	552.19
364.375	559.08
364.443	577.45
364.511	549.89
364.579	598.11
364.647	614.18
364.715	627.96
364.783	655.51
364.851	627.96
364.919	582.04
364.987	600.41
365.055	689.95
365.123	671.58
365.191	634.85
365.259	712.91
365.327	671.58
365.395	719.8
365.463	774.9
365.531	710.61
365.599	708.32
365.667	742.76
365.735	754.24
365.802	804.75
365.87	823.12
365.938	751.94
366.006	857.56
366.074	875.93
366.142	859.86
366.209	809.34
366.277	843.78
366.345	864.45
366.413	896.59
366.48	979.25
366.548	935.62
366.616	981.54
366.683	1009.1
366.751	1002.21
366.819	1043.54
366.886	1064.2
366.954	1059.61
367.022	1119.3
367.089	1082.57
367.157	1268.55
367.224	1211.15
367.292	1259.36
367.36	1192.78
367.427	1307.58
367.495	1280.03
367.562	1307.58
367.63	1330.54
367.697	1330.54
367.765	1415.49
367.832	1498.15
367.9	1443.04
367.967	1560.14
368.034	1482.07
368.102	1468.3
368.169	1560.14
368.237	1537.18
368.304	1688.72
368.371	1686.42
368.439	1854.03
368.506	1789.74
368.573	1860.92
368.641	1964.24
368.708	1980.31
368.775	1922.91
368.843	2023.93
368.91	2021.64
368.977	2083.63
369.044	2095.11
369.112	2269.61
369.179	2168.58
369.246	2184.65
369.313	2372.93
369.38	2418.85
369.448	2492.32
369.515	2524.46
369.582	2657.63
369.649	2623.19
369.716	2641.56
369.783	2715.03
369.85	2845.9
369.917	2930.86
369.984	2953.82
370.052	3018.1
370.119	3146.68
370.186	3158.16
370.253	3052.54
370.32	3178.83
370.387	3289.03
370.454	3481.9
370.521	3461.23
370.587	3468.12
370.654	3640.32
370.721	3768.9
370.788	3837.78
370.855	3819.41
370.922	4078.86
370.989	4097.23
371.056	4294.69
371.123	4053.6
371.189	4370.45
371.256	4329.13
371.323	4398.01
371.39	4400.3
371.457	4634.5
371.523	4673.53
371.59	4776.85
371.657	4866.39
371.724	4935.27
371.79	5089.11
371.857	5183.24
371.924	5325.59
371.991	5523.05
372.057	5529.94
372.124	5757.24
372.191	5787.09
372.257	5858.27
372.324	5934.04
372.39	6023.58
372.457	6285.33
372.524	6363.39
372.59	6583.81
372.657	6432.27
372.723	6615.95
372.79	6714.68
372.856	6818
372.923	7020.05
372.989	7261.13
373.056	7472.36
373.122	7419.55
373.189	7577.98
373.255	7637.68
373.322	7945.34
373.388	8064.73
373.454	8181.83
373.521	8365.51
373.587	8372.4
373.654	8723.69
373.72	8957.88
373.786	8856.86
373.853	9132.38
373.919	9304.58
373.985	9453.82
374.052	9740.82
374.118	9887.77
374.184	9855.62
374.25	10206.91
374.317	10328.6
374.383	10659.22
374.449	11021.99
374.515	10960
374.581	11077.1
374.648	11205.67
374.714	11476.6
374.78	11905.96
374.846	11972.54
374.912	12277.91
374.978	12282.5
375.044	12408.78
375.11	12744
375.177	13060.85
375.243	13237.64
375.309	13437.4
375.375	13756.54
375.441	13947.11
375.507	14137.68
375.573	14263.96
375.639	14665.76
375.705	14624.43
375.771	14957.35
375.837	15522.17
375.903	15574.98
375.968	15634.68
376.034	15834.43
376.1	16537.01
376.166	16617.37
376.232	16778.09
376.298	17037.54
376.364	17347.5
376.43	17482.96
376.495	17818.18
376.561	18017.93
376.627	18431.22
376.693	19000.63
376.759	18929.45
376.824	19547.08
376.89	19804.23
376.956	19992.5
377.022	20630.79
377.087	21085.4
377.153	20862.69
377.219	21445.88
377.284	21668.59
377.35	22208.15
377.416	22320.66
377.481	23131.15
377.547	22857.92
377.613	23617.9
377.678	24093.18
377.744	24393.95
377.809	24559.27
377.875	25199.85
377.94	25473.08
378.006	25601.65
378.071	26164.18
378.137	26986.15
378.202	27316.77
378.268	27736.94
378.333	27920.62
378.399	28749.48
378.464	28760.96
378.53	29518.65
378.595	29534.72
378.661	30416.39
378.726	30501.34
378.791	31061.56
378.857	31702.15
378.922	31853.69
378.987	32735.36
379.053	33111.9
379.118	33451.71
379.183	34517.06
379.249	34845.39
379.314	35074.99
379.379	35304.59
379.444	35947.47
379.51	36751.08
379.575	37465.14
379.64	37235.53
379.705	37951.89
379.771	38369.76
379.836	38716.46
379.901	39547.62
379.966	39910.39
380.031	40365
380.096	41033.13
380.161	41866.59
380.227	41891.84
380.292	42638.04
380.357	42768.92
380.422	43457.72
380.487	44562.1
380.552	44686.09
380.617	45154.47
380.682	45753.73
380.747	46286.4
380.812	46561.93
380.877	47037.2
380.942	47399.97
381.007	47131.34
381.072	47553.8
381.137	48081.88
381.202	48878.6
381.266	49000.29
381.331	49262.03
381.396	49803.89
381.461	49980.68
381.526	50258.5
381.591	50573.05
381.656	51089.66
381.72	50492.69
381.785	51181.5
381.85	51358.29
381.915	51202.16
381.979	51815.2
382.044	52338.69
382.109	51792.23
382.174	51824.38
382.238	52035.61
382.303	52063.16
382.368	52278.99
382.432	52079.24
382.497	52283.58
382.562	52008.06
382.626	52021.84
382.691	51863.41
382.756	51597.07
382.82	52067.76
382.885	52136.64
382.949	52010.36
383.014	51199.86
383.078	51066.7
383.143	51156.24
383.208	50593.72
383.272	50313.6
383.337	50240.13
383.401	50077.12
383.465	49597.25
383.53	49078.35
383.594	49039.32
383.659	48635.22
383.723	48382.66
383.788	47418.34
383.852	46966.02
383.916	47184.14
383.981	46995.87
384.045	46043.03
384.109	45730.77
384.174	45326.67
384.238	44346.28
384.302	44178.67
384.367	43565.63
384.431	43055.92
384.495	42716.11
384.56	42004.35
384.624	41398.2
384.688	40773.69
384.752	40022.89
384.816	38975.91
384.881	38174.6
384.945	37609.78
385.009	37366.41
385.073	36712.04
385.137	36133.45
385.201	35570.93
385.265	35109.43
385.33	34836.2
385.394	34142.81
385.458	33440.23
385.522	32707.8
385.586	32234.83
385.65	31651.64
385.714	31259.02
385.778	30604.66
385.842	30179.9
385.906	29608.19
385.97	29064.04
386.034	28379.83
386.098	27938.99
386.162	27321.37
386.226	26751.96
386.29	26446.59
386.354	26031.01
386.417	25879.47
386.481	25167.71
386.545	24841.68
386.609	24329.66
386.673	23879.65
386.737	23555.91
386.8	23356.16
386.864	22880.88
386.928	22812
386.992	22251.78
387.056	21774.21
387.119	21732.88
387.183	21427.51
387.247	20864.99
387.31	20589.47
387.374	19868.52
387.438	19852.45
387.502	19436.87
387.565	19211.86
387.629	18766.43
387.692	18929.45
387.756	18442.7
387.82	18373.82
387.883	18197.02
387.947	17827.37
388.01	17416.38
388.074	16833.19
388.138	17207.44
388.201	16766.61
388.265	16888.3
388.328	16601.3
388.392	16305.11
388.455	15953.82
388.519	15917.09
388.582	16020.41
388.645	15839.02
388.709	15384.41
388.772	15529.06
388.836	15088.23
388.899	14888.47
388.962	14943.58
389.026	14771.38
389.089	14766.79
389.153	14541.78
389.216	14229.52
389.279	14289.22
389.343	13855.27
389.406	13954
389.469	13850.68
389.532	13786.39
389.596	13825.42
389.659	13469.54
389.722	13368.52
389.785	13109.07
389.848	12998.86
389.912	13216.98
389.975	12817.47
390.038	12803.7
390.101	12716.45
390.164	12546.54
390.227	12507.51
390.291	12312.35
390.354	12585.58
390.417	12408.78
390.48	12199.85
390.543	11984.02
390.606	12119.49
390.669	11899.07
390.732	11768.2
390.795	11935.81
390.858	11676.36
390.921	11848.56
390.984	11641.92
391.047	11279.15
391.11	11251.59
391.173	11283.74
391.236	10932.45
391.299	11021.99
391.362	11079.39
391.424	11056.43
391.487	10930.15
391.55	10654.63
391.613	10482.43
391.676	10558.2
391.739	10376.82
391.802	10372.22
391.864	10298.75
391.927	10057.67
391.99	10094.41
392.053	10050.78
392.115	9873.99
392.178	9704.08
392.241	9609.95
392.304	9531.88
392.366	9557.14
392.429	9467.6
392.492	9401.01
392.554	9355.09
392.617	9173.71
392.68	9217.33
392.742	8911.96
392.805	8918.85
392.867	8758.13
392.93	8824.71
392.992	8689.25
393.055	8753.54
393.118	8590.52
393.18	8253.01
393.243	8351.73
393.305	8223.16
393.368	8191.01
393.43	7968.3
393.493	8032.59
393.555	7954.53
393.618	7885.64
393.68	7690.48
393.742	7656.04
393.805	7458.59
393.867	7538.95
393.93	7196.84
393.992	7215.21
394.054	7150.92
394.117	6955.76
394.179	6836.37
394.241	6847.85
394.304	6668.76
394.366	6654.98
394.428	6650.39
394.49	6420.79
394.553	6283.03
394.615	6253.18
394.677	6241.7
394.739	6207.26
394.802	5991.44
394.864	6037.36
394.926	6028.17
394.988	5920.26
395.05	5679.18
395.112	5814.64
395.174	5686.07
395.237	5447.28
395.299	5369.22
395.361	5364.63
395.423	5187.83
395.485	5229.16
395.547	5082.22
395.609	5020.22
395.671	4857.21
395.733	4907.72
395.795	4685.01
395.857	4772.26
395.919	4749.3
395.981	4577.09
396.043	4648.27
396.105	4411.78
396.167	4391.12
396.229	4365.86
396.291	4308.46
396.352	4191.37
396.414	4193.66
396.476	4085.75
396.538	4014.57
396.6	4076.56
396.662	3950.28
396.724	3844.67
396.785	3989.32
396.847	3796.45
396.909	3791.86
396.971	3745.94
397.032	3564.55
397.094	3642.62
397.156	3638.03
397.218	3507.15
397.279	3406.13
397.341	3277.55
397.403	3399.24
397.464	3341.84
397.526	3360.21
397.588	3305.11
397.649	3139.79
397.711	3148.98
397.772	3245.41
397.834	3107.65
397.896	3002.03
397.957	2946.93
398.019	2969.89
398.08	3004.33
398.142	2921.67
398.203	2956.11
398.265	2919.38
398.326	2756.36
398.388	2781.62
398.449	2689.78
398.511	2639.26
398.572	2786.21
398.633	2662.22
398.695	2611.71
398.756	2529.05
398.818	2632.37
398.879	2586.45
398.94	2584.16
399.002	2467.06
399.063	2457.88
399.124	2425.73
399.186	2407.37
399.247	2366.04
399.308	2471.65
399.369	2384.41
399.431	2400.48
399.492	2354.56
399.553	2343.08
399.614	2363.74
399.676	2255.83
399.737	2283.38
399.798	2301.75
399.859	2313.23
399.92	2324.71
399.981	2237.46
400.042	2338.49
400.104	2237.46
400.165	2138.73
400.226	2198.43
400.287	2219.09
400.348	1989.49
400.409	2044.6
400.47	2120.36
400.531	2085.92
400.592	2200.73
400.653	2081.33
400.714	2104.29
400.775	2097.4
400.836	2028.52
400.897	2021.64
400.958	1980.31
401.019	1959.64
401.08	1865.51
401.141	1959.64
401.201	1936.68
401.262	1948.16
401.323	1860.92
401.384	1936.68
401.445	1893.06
401.506	1835.66
401.567	1867.8
401.627	1860.92
401.688	1835.66
401.749	1968.83
401.81	1909.13
401.87	1893.06
401.931	1851.73
401.992	1835.66
402.053	1778.26
402.113	1858.62
402.174	1798.92
402.235	1723.16
402.295	1693.31
402.356	1773.67
402.417	1668.05
402.477	1785.15
402.538	1681.83
402.598	1778.26
402.659	1748.41
402.719	1723.16
402.78	1677.23
402.841	1642.79
402.901	1691.01
402.962	1727.75
403.022	1585.39
403.083	1668.05
403.143	1587.69
403.204	1656.57
403.264	1656.57
403.324	1603.76
403.385	1525.7
403.445	1583.1
403.506	1594.58
403.566	1466
403.627	1502.74
403.687	1546.36
403.747	1493.55
403.808	1456.82
403.868	1521.11
403.928	1567.03
403.989	1484.37
404.049	1479.78
404.109	1521.11
404.169	1470.59
404.23	1378.75
404.29	1369.57
404.35	1422.38
404.41	1443.04
404.47	1390.23
404.531	1362.68
404.591	1381.05
404.651	1413.19
404.711	1385.64
404.771	1392.53
404.831	1383.35
404.892	1296.1
404.952	1270.84
405.012	1325.95
405.072	1337.43
405.132	1273.14
405.192	1298.39
405.252	1355.79
405.312	1364.98
405.372	1286.91
405.432	1236.4
405.492	1231.81
405.552	1309.87
405.612	1286.91
405.672	1160.63
405.732	1218.03
405.792	1192.78
405.852	1222.63
405.912	1100.94
405.971	1195.07
406.031	1204.26
406.091	1169.82
406.151	1192.78
406.211	1243.29
406.271	1077.98
406.33	1114.71
406.39	1121.6
406.45	1087.16
406.51	1172.11
406.57	1006.8
406.629	1025.17
406.689	1064.2
406.749	1080.27
406.808	1002.21
406.868	1048.13
406.928	1011.39
406.988	990.73
407.047	960.88
407.107	1013.69
407.166	972.36
407.226	981.54
407.286	1013.69
407.345	1015.98
407.405	947.1
407.464	931.03
407.524	1045.83
407.584	951.7
407.643	919.55
407.703	917.26
407.762	914.96
407.822	894.3
407.881	965.47
407.941	986.14
408	963.18
408.059	841.49
408.119	882.82
408.178	940.22
408.238	846.08
408.297	875.93
408.356	928.74
408.416	908.07
408.475	933.33
408.535	788.68
408.594	841.49
408.653	807.05
408.712	885.11
408.772	804.75
408.831	834.6
408.89	818.53
408.95	742.76
409.009	859.86
409.068	896.59
409.127	834.6
409.186	820.82
409.246	774.9
409.305	763.42
409.364	790.98
409.423	834.6
409.482	781.79
409.541	864.45
409.6	816.23
409.66	834.6
409.719	701.43
409.778	765.72
409.837	719.8
409.896	761.13
409.955	687.65
410.014	726.69
410.073	749.65
410.132	823.12
410.191	715.21
410.25	770.31
410.309	669.29
410.368	708.32
410.427	694.54
410.486	701.43
410.545	673.88
410.603	728.98
410.662	751.94
410.721	717.5
410.78	740.46
410.839	593.52
410.898	630.25
410.957	637.14
411.015	660.1
411.074	689.95
411.133	699.13
411.192	662.4
411.25	754.24
411.309	678.47
411.368	687.65
411.427	678.47
411.485	600.41
411.544	687.65
411.603	605
411.661	646.33
411.72	577.45
411.779	717.5
411.837	650.92
411.896	600.41
411.955	588.93
412.013	706.02
412.072	637.14
412.13	660.1
412.189	653.21
412.247	646.33
412.306	660.1
412.364	616.48
412.423	641.73
412.481	627.96
412.54	584.33
412.598	600.41
412.657	600.41
412.715	609.59
412.774	598.11
412.832	565.97
412.891	602.7
412.949	584.33
413.007	602.7
413.066	572.85
413.124	579.74
413.182	561.37
413.241	630.25
413.299	602.7
413.357	575.15
413.416	572.85
413.474	554.49
413.532	556.78
413.59	602.7
413.649	556.78
413.707	533.82
413.765	588.93
413.823	533.82
413.881	607.29
413.94	593.52
413.998	627.96
414.056	485.61
414.114	554.49
414.172	563.67
414.23	506.27
414.288	510.86
414.347	582.04
414.405	561.37
414.463	570.56
414.521	499.38
414.579	570.56
414.637	515.45
414.695	481.01
414.753	554.49
414.811	529.23
414.869	545.3
414.927	582.04
414.985	478.72
415.043	570.56
415.101	515.45
415.158	556.78
415.216	460.35
415.274	549.89
415.332	517.75
415.39	526.93
415.448	455.76
415.506	517.75
415.563	481.01
415.621	492.49
415.679	529.23
415.737	460.35
415.795	529.23
415.852	575.15
415.91	501.68
415.968	538.41
416.026	503.97
416.083	561.37
416.141	538.41
416.199	464.94
416.256	552.19
416.314	476.42
416.372	439.69
416.429	515.45
416.487	483.31
416.544	499.38
416.602	526.93
416.66	522.34
416.717	458.05
416.775	492.49
416.832	501.68
416.89	437.39
416.947	526.93
417.005	448.87
417.062	501.68
417.12	474.13
417.177	460.35
417.235	446.57
417.292	513.16
417.35	552.19
417.407	464.94
417.464	513.16
417.522	520.05
417.579	494.79
417.637	531.53
417.694	446.57
417.751	467.24
417.809	451.17
417.866	494.79
417.923	503.97
417.981	478.72
418.038	554.49
418.095	503.97
418.152	540.71
418.21	545.3
418.267	476.42
418.324	428.21
418.381	471.83
418.438	499.38
418.496	446.57
418.553	485.61
418.61	483.31
418.667	538.41
418.724	464.94
418.781	469.53
418.838	458.05
418.895	455.76
418.952	455.76
419.01	455.76
419.067	481.01
419.124	448.87
419.181	520.05
419.238	483.31
419.295	405.25
419.352	437.39
419.409	462.65
419.466	437.39
419.523	428.21
419.579	421.32
419.636	501.68
419.693	441.98
419.75	428.21
419.807	405.25
419.864	407.54
419.921	474.13
419.978	503.97
420.034	414.43
420.091	412.13
420.148	520.05
420.205	377.69
420.262	467.24
420.318	407.54
420.375	467.24
420.432	428.21
420.489	490.2
420.545	407.54
420.602	437.39
420.659	361.62
420.715	441.98
420.772	373.1
420.829	414.43
420.885	400.65
420.942	405.25
420.999	412.13
421.055	386.88
421.112	421.32
421.168	354.73
421.225	407.54
421.282	393.77
421.338	412.13
421.395	439.69
421.451	373.1
421.508	419.02
421.564	499.38
421.621	425.91
421.677	393.77
421.734	446.57
421.79	469.53
421.846	446.57
421.903	483.31
421.959	375.4
422.016	419.02
422.072	421.32
422.128	432.8
422.185	451.17
422.241	462.65
422.297	478.72
422.354	425.91
422.41	366.21
422.466	375.4
422.523	400.65
422.579	430.5
422.635	423.61
422.691	393.77
422.748	448.87
422.804	451.17
422.86	435.09
422.916	412.13
422.972	389.17
423.029	439.69
423.085	439.69
423.141	483.31
423.197	370.81
423.253	336.37
423.309	448.87
423.365	462.65
423.421	414.43
423.477	396.06
423.533	437.39
423.589	393.77
423.645	368.51
423.701	343.25
423.757	453.46
423.813	354.73
423.869	389.17
423.925	412.13
423.981	382.29
424.037	409.84
424.093	396.06
424.149	446.57
424.205	357.03
424.261	432.8
424.317	419.02
424.373	425.91
424.428	405.25
424.484	448.87
424.54	347.85
424.596	483.31
424.652	405.25
424.708	407.54
424.763	352.44
424.819	416.73
424.875	354.73
424.931	416.73
424.986	377.69
425.042	441.98
425.098	391.47
425.153	377.69
425.209	446.57
425.265	370.81
425.32	389.17
425.376	437.39
425.432	366.21
425.487	354.73
425.543	446.57
425.598	441.98
425.654	419.02
425.709	375.4
425.765	359.33
425.82	359.33
425.876	379.99
425.932	386.88
425.987	352.44
426.042	430.5
426.098	389.17
426.153	373.1
426.209	402.95
426.264	331.77
426.32	389.17
426.375	345.55
426.43	396.06
426.486	370.81
426.541	366.21
426.597	419.02
426.652	405.25
426.707	407.54
426.763	428.21
426.818	398.36
426.873	382.29
426.928	393.77
426.984	318
427.039	377.69
427.094	451.17
427.149	400.65
427.205	384.58
427.26	405.25
427.315	412.13
427.37	425.91
427.425	400.65
427.48	384.58
427.536	398.36
427.591	329.48
427.646	391.47
427.701	400.65
427.756	412.13
427.811	386.88
427.866	393.77
427.921	359.33
427.976	391.47
428.031	384.58
428.086	398.36
428.141	412.13
428.196	416.73
428.251	441.98
428.306	416.73
428.361	308.81
428.416	343.25
428.471	391.47
428.526	430.5
428.581	414.43
428.636	441.98
428.691	299.63
428.745	464.94
428.8	357.03
428.855	375.4
428.91	361.62
428.965	409.84
429.02	414.43
429.074	412.13
429.129	389.17
429.184	322.59
429.239	391.47
429.293	412.13
429.348	384.58
429.403	423.61
429.457	476.42
429.512	432.8
429.567	398.36
429.621	357.03
429.676	379.99
429.731	357.03
429.785	412.13
429.84	359.33
429.895	402.95
429.949	414.43
430.004	379.99
430.058	338.66
430.113	361.62
430.167	412.13
430.222	407.54
430.276	405.25
430.331	435.09
430.385	400.65
430.44	412.13
430.494	396.06
430.549	407.54
430.603	396.06
430.657	363.92
430.712	361.62
430.766	311.11
430.821	437.39
430.875	393.77
430.929	396.06
430.984	354.73
431.038	421.32
431.092	409.84
431.147	453.46
431.201	430.5
431.255	354.73
431.309	393.77
431.364	350.14
431.418	405.25
431.472	375.4
431.526	441.98
431.581	425.91
431.635	379.99
431.689	430.5
431.743	370.81
431.797	398.36
431.851	405.25
431.906	391.47
431.96	379.99
432.014	354.73
432.068	396.06
432.122	407.54
432.176	354.73
432.23	419.02
432.284	405.25
432.338	416.73
432.392	345.55
432.446	373.1
432.5	377.69
432.554	453.46
432.608	368.51
432.662	327.18
432.716	409.84
432.77	412.13
432.824	359.33
432.878	315.7
432.931	363.92
432.985	354.73
433.039	370.81
433.093	407.54
433.147	391.47
433.201	423.61
433.254	377.69
433.308	400.65
433.362	354.73
433.416	377.69
433.47	384.58
433.523	407.54
433.577	354.73
433.631	386.88
433.684	366.21
433.738	398.36
433.792	414.43
433.846	331.77
433.899	389.17
433.953	352.44
434.006	414.43
434.06	370.81
434.114	402.95
434.167	402.95
434.221	402.95
