Data from FLMS155811_14-45-37-690.txt Node
Date: Tue May 12 14:45:37 MDT 2026
User: ecestudent
Spectrometer: FLMS15581
Trigger mode: 0
Integration Time (sec): 8.000000E-2
Scans to average: 100
Electric dark correction enabled: true
Nonlinearity correction enabled: false
Boxcar width: 0
XAxis mode: Wavelengths
Number of Pixels in Spectrum: 2048
>>>>>Begin Spectral Data<<<<<
298.026	-103.02
298.106	-103.02
298.185	-103.02
298.265	-136.04
298.344	-128.12
298.424	-125.41
298.503	-112.05
298.583	-102.68
298.662	-89.38
298.741	-73.63
298.821	-57.03
298.9	-36.58
298.98	-19.52
299.059	5.65
299.138	25.55
299.217	43.76
299.297	64.31
299.376	85.04
299.455	105.89
299.535	135.4
299.614	150.66
299.693	165.4
299.772	185.38
299.852	211.05
299.931	230.43
300.01	254.47
300.089	268.86
300.168	282.23
300.247	296.51
300.327	307.55
300.406	314.42
300.485	324.52
300.564	333.68
300.643	334.51
300.722	350.97
300.801	351.82
300.88	352.28
300.959	355.58
301.038	361.12
301.117	360.79
301.196	367.2
301.275	368.76
301.354	372.11
301.433	367.94
301.512	361.71
301.591	370.6
301.67	363.07
301.749	373.38
301.828	367.11
301.907	358.57
301.985	362.36
302.064	354.96
302.143	358.75
302.222	361.09
302.301	353.38
302.38	346.42
302.458	356.27
302.537	351.4
302.616	342.22
302.695	347.39
302.773	339.21
302.852	344.26
302.931	342.08
303.01	338.25
303.088	341.83
303.167	339.19
303.246	336.46
303.324	334.05
303.403	337.63
303.481	339.42
303.56	341.12
303.639	330.97
303.717	339.79
303.796	342.06
303.874	339.1
303.953	343.99
304.032	334.94
304.11	342.34
304.189	336.48
304.267	339.88
304.346	342.43
304.424	352.99
304.502	342.84
304.581	339.67
304.659	337.51
304.738	339.65
304.816	341.49
304.895	336.89
304.973	338.32
305.051	341.92
305.13	343.37
305.208	343.94
305.286	343.23
305.365	338.91
305.443	340.38
305.521	344.68
305.6	344.52
305.678	341.46
305.756	343.23
305.834	350
305.913	343.3
305.991	342.52
306.069	343.05
306.147	343.67
306.225	344.22
306.304	349.11
306.382	350.72
306.46	352.85
306.538	347.94
306.616	348.4
306.694	348.42
306.772	350.65
306.85	344.24
306.929	349.41
307.007	349.77
307.085	353.93
307.163	350.65
307.241	358.5
307.319	355.54
307.397	350.1
307.475	351.75
307.553	355.01
307.631	352.6
307.709	351.24
307.786	353.08
307.864	348.74
307.942	357.33
308.02	352.78
308.098	351.98
308.176	359.95
308.254	362.82
308.332	356.52
308.409	355.33
308.487	358.15
308.565	357.72
308.643	356.57
308.721	355.63
308.798	355.67
308.876	356.04
308.954	363.21
309.032	356.5
309.109	355.9
309.187	362.24
309.265	363.92
309.342	364.84
309.42	354.94
309.498	356.13
309.575	360.91
309.653	362.95
309.731	353.45
309.808	360.84
309.886	367.11
309.963	366.31
310.041	365.55
310.119	361.94
310.196	364.06
310.274	362.01
310.351	355.35
310.429	354.43
310.506	361.58
310.584	362.49
310.661	360.04
310.738	358.43
310.816	369.31
310.893	367.52
310.971	367.13
311.048	364.79
311.126	372.76
311.203	365.43
311.28	368.97
311.358	362.36
311.435	368.79
311.512	370.12
311.59	368.33
311.667	364.45
311.744	372.09
311.821	369.01
311.899	367.52
311.976	367.29
312.053	370.25
312.13	371.68
312.208	371.13
312.285	367.32
312.362	373.58
312.439	357.12
312.516	367.64
312.593	369.68
312.671	373.84
312.748	363.78
312.825	367.57
312.902	361.64
312.979	369.13
313.056	364.7
313.133	371.84
313.21	372.11
313.287	370.42
313.364	376.18
313.441	368.81
313.518	373.45
313.595	372.25
313.672	373.01
313.749	367.38
313.826	370.62
313.903	372.27
313.98	367.43
314.057	379.76
314.134	374.5
314.211	373.91
314.287	373.4
314.364	375.42
314.441	380.93
314.518	372.02
314.595	387.38
314.672	378.34
314.748	376.73
314.825	379.23
314.902	369.68
314.979	374.75
315.055	375.76
315.132	386.26
315.209	378.18
315.286	373.65
315.362	377.05
315.439	373.49
315.516	378.8
315.592	384.19
315.669	380.24
315.746	384.1
315.822	379.62
315.899	373.54
315.975	388.67
316.052	375.79
316.128	375.01
316.205	385.48
316.282	386.23
316.358	371.82
316.435	404.47
316.511	381.23
316.588	377.28
316.664	375.79
316.741	392.39
316.817	379.87
316.893	378.47
316.97	379.69
317.046	378.93
317.123	371.52
317.199	386.9
317.275	382.93
317.352	380.75
317.428	381.28
317.504	383.3
317.581	383
317.657	382.52
317.733	381.14
317.81	384.83
317.886	383.66
317.962	379.12
318.038	384.17
318.115	382.84
318.191	381.34
318.267	384.65
318.343	379.76
318.419	387.54
318.496	387.93
318.572	387.2
318.648	383.34
318.724	380.91
318.8	391.06
318.876	386.35
318.952	382.45
319.028	378.77
319.105	383.62
319.181	384.42
319.257	382.72
319.333	382.63
319.409	379.6
319.485	384.56
319.561	384.37
319.637	382.4
319.713	393.81
319.789	387.41
319.865	387.66
319.94	386.88
320.016	387.31
320.092	385.89
320.168	385.09
320.244	390.57
320.32	385.59
320.396	386.49
320.472	391.95
320.547	382.38
320.623	393.95
320.699	394.41
320.775	393.17
320.851	395.21
320.926	385.25
321.002	393.26
321.078	386.03
321.154	386.9
321.229	390.71
321.305	389.75
321.381	391.19
321.456	389.56
321.532	388.35
321.608	390.8
321.683	382.26
321.759	389.45
321.835	386.4
321.91	386.12
321.986	397.85
322.061	396.02
322.137	396.82
322.212	386.99
322.288	392.39
322.364	391.38
322.439	397.09
322.515	398.08
322.59	389.22
322.666	400.08
322.741	397.6
322.816	386.3
322.892	395.97
322.967	405.59
323.043	390.41
323.118	390.76
323.193	395.79
323.269	394.27
323.344	387.82
323.42	392.64
323.495	395.99
323.57	397.97
323.646	396.5
323.721	399.41
323.796	392.73
323.871	393.63
323.947	401.09
324.022	396.34
324.097	397.65
324.172	385.34
324.248	403.34
324.323	395.35
324.398	402.67
324.473	393.26
324.548	396.2
324.623	397
324.699	397.58
324.774	408.74
324.849	395.19
324.924	393.79
324.999	391.54
325.074	401.89
325.149	399.87
325.224	406.97
325.299	460.65
325.374	408.18
325.449	392.92
325.524	399.46
325.599	402.03
325.674	395.1
325.749	404.65
325.824	397.65
325.899	403.55
325.974	406.51
326.049	402.21
326.124	402.31
326.199	398.86
326.273	399.32
326.348	403.25
326.423	397.46
326.498	399.23
326.573	398.95
326.648	402.72
326.722	393.38
326.797	402.08
326.872	400.31
326.947	397.21
327.021	396.31
327.096	399.76
327.171	399.83
327.245	400.54
327.32	395.24
327.395	404.81
327.47	400.52
327.544	401
327.619	405.06
327.693	423.94
327.768	397.09
327.843	403.78
327.917	398.43
327.992	404.24
328.066	399.74
328.141	398.52
328.215	401.39
328.29	412.68
328.364	404.01
328.439	404.58
328.513	413.56
328.588	408.18
328.662	400.84
328.737	401.32
328.811	398.66
328.886	408.3
328.96	404.65
329.035	403.5
329.109	405.06
329.183	406.39
329.258	407.59
329.332	404.53
329.406	397.78
329.481	406.37
329.555	402.58
329.629	402.49
329.704	410.18
329.778	402.38
329.852	406.32
329.926	405.22
330.001	409.61
330.075	409.56
330.149	407.29
330.223	404.49
330.297	410.43
330.372	411.63
330.446	410.16
330.52	411.31
330.594	408.51
330.668	411.77
330.742	413.83
330.816	410.14
330.89	403.39
330.964	411.77
331.038	408.28
331.113	406.03
331.187	408.64
331.261	409.29
331.335	412.06
331.409	417
331.483	405.48
331.557	406.28
331.63	407.27
331.704	411.22
331.778	427.59
331.852	407.31
331.926	410.37
332	412.04
332.074	413.19
332.148	411.1
332.222	404.81
332.295	413.21
332.369	416.01
332.443	425.77
332.517	401.89
332.591	415
332.665	409.38
332.738	409.65
332.812	411.33
332.886	413.03
332.959	413.92
333.033	418.31
333.107	420.19
333.181	419.14
333.254	416.7
333.328	414.41
333.402	412.52
333.475	417.25
333.549	413.79
333.622	415.53
333.696	414.5
333.77	419.04
333.843	413.56
333.917	414.48
333.99	434.66
334.064	416.5
334.137	415.39
334.211	416.06
334.284	414.64
334.358	431.31
334.431	417.71
334.505	420.26
334.578	415.33
334.652	418.36
334.725	433.51
334.799	412.32
334.872	418.45
334.945	429.01
335.019	414.18
335.092	420.1
335.165	426.51
335.239	417.23
335.312	419.55
335.385	424.67
335.459	419.14
335.532	427.38
335.605	422.95
335.678	428.32
335.752	429.42
335.825	417.62
335.898	419.39
335.971	433.21
336.045	427.77
336.118	418.65
336.191	414.41
336.264	422.72
336.337	422.88
336.41	424.85
336.483	422.9
336.557	417.71
336.63	416.82
336.703	438.56
336.776	424.53
336.849	434.5
336.922	420.97
336.995	424.6
337.068	424.58
337.141	426.05
337.214	420.9
337.287	416.93
337.36	421.64
337.433	430.34
337.506	425.86
337.579	428.53
337.652	432.64
337.725	432.5
337.797	432.66
337.87	430.98
337.943	431.4
338.016	421.41
338.089	428.78
338.162	421.69
338.235	425.79
338.307	424.23
338.38	434.73
338.453	434.15
338.526	429.84
338.598	434.22
338.671	425.7
338.744	432.34
338.817	433.67
338.889	427.98
338.962	428.32
339.035	436.52
339.107	430.5
339.18	425.93
339.253	436.72
339.325	427.79
339.398	435.67
339.47	436.49
339.543	439.43
339.616	435.21
339.688	434.84
339.761	435.28
339.833	442.44
339.906	438.1
339.978	438.38
340.051	433.97
340.123	436.17
340.196	435.58
340.268	434.11
340.341	432.61
340.413	443.7
340.485	440.37
340.558	438.4
340.63	443.66
340.703	442.51
340.775	428.83
340.847	433.9
340.92	438.42
340.992	437.64
341.064	438.65
341.137	432.11
341.209	434.75
341.281	443.93
341.354	442.53
341.426	440.42
341.498	440.95
341.57	447.22
341.643	442.85
341.715	446.73
341.787	443.84
341.859	446.41
341.931	445.47
342.003	448.02
342.076	446.53
342.148	446.32
342.22	442.97
342.292	447.68
342.364	449.7
342.436	443.31
342.508	442.92
342.58	449.63
342.652	446.62
342.724	459.2
342.796	443.8
342.868	451.74
342.94	451.51
343.012	454.15
343.084	451.65
343.156	451.92
343.228	447.61
343.3	456.84
343.372	452.04
343.444	450.75
343.516	456.49
343.588	449.21
343.66	453.74
343.731	451.76
343.803	455.64
343.875	452.38
343.947	460.76
344.019	460.12
344.09	465.03
344.162	456.35
344.234	460.79
344.306	451.85
344.377	463.5
344.449	460.12
344.521	464.25
344.593	460.95
344.664	458.9
344.736	462.39
344.808	466
344.879	459.13
344.951	466.73
345.023	458.93
345.094	469.44
345.166	467.61
345.237	467.67
345.309	464.55
345.38	470.89
345.452	466.92
345.524	469.65
345.595	470.64
345.667	466.04
345.738	472.08
345.81	471.14
345.881	471.81
345.953	472.24
346.024	470.73
346.095	473.05
346.167	475.87
346.238	470.04
346.31	476.38
346.381	470.89
346.452	473.37
346.524	474.81
346.595	469.97
346.666	481.89
346.738	476.95
346.809	476.79
346.88	485.97
346.952	481.75
347.023	480
347.094	482.69
347.165	486.94
347.237	482.28
347.308	483.75
347.379	480.95
347.45	483.13
347.521	485.7
347.593	485.4
347.664	486.87
347.735	488.15
347.806	482.64
347.877	480.14
347.948	491.25
348.019	492.91
348.09	492.75
348.161	494.49
348.233	490.93
348.304	499.34
348.375	497.68
348.446	503.45
348.517	495.3
348.588	494.4
348.659	497.87
348.73	501.2
348.801	498.46
348.871	498.44
348.942	503.65
349.013	504.85
349.084	505.17
349.155	504.27
349.226	507.42
349.297	505.72
349.368	506.66
349.439	520.37
349.509	501.31
349.58	512.29
349.651	516.46
349.722	514.26
349.793	521.81
349.863	520.6
349.934	517.75
350.005	519.27
350.076	529.34
350.146	526.7
350.217	518.21
350.288	529.78
350.358	535.57
350.429	542.04
350.5	537.17
350.57	548.49
350.641	535.38
350.711	548.38
350.782	550.19
350.853	554.37
350.923	549.83
350.994	562.22
351.064	555.89
351.135	561.47
351.205	564.52
351.276	576.87
351.346	571.84
351.417	590.92
351.487	582.7
351.558	590.9
351.628	598.39
351.699	598
351.769	618.15
351.84	623.5
351.91	619.9
351.98	627.52
352.051	637.81
352.121	641.96
352.191	658.11
352.262	665.45
352.332	678.59
352.402	689.81
352.473	701.02
352.543	708.07
352.613	723.17
352.683	744.18
352.754	749.12
352.824	761.24
352.894	784.52
352.964	796.51
353.035	814.37
353.105	830.95
353.175	846.81
353.245	871.86
353.315	891.95
353.385	918.24
353.455	943.5
353.526	959.07
353.596	985.72
353.666	1009.74
353.736	1032.31
353.806	1066.2
353.876	1100.8
353.946	1128.67
354.016	1154.8
354.086	1205.66
354.156	1248.16
354.226	1258.1
354.296	1300.53
354.366	1342.04
354.436	1389.5
354.506	1432.23
354.576	1463.45
354.645	1516.12
354.715	1567.58
354.785	1625.41
354.855	1667.96
354.925	1706.76
354.995	1780.39
355.065	1858.9
355.134	1886.68
355.204	1945.82
355.274	2019.04
355.344	2093.09
355.414	2178.84
355.483	2222.67
355.553	2325.72
355.623	2412.14
355.693	2478.29
355.762	2529.88
355.832	2611.18
355.902	2740.56
355.971	2856.7
356.041	2937.9
356.111	3010.55
356.18	3086.89
356.25	3211.89
356.319	3329.01
356.389	3416.05
356.459	3547.91
356.528	3700.87
356.598	3766.9
356.667	3894.51
356.737	4009.57
356.806	4138.19
356.876	4283.09
356.945	4410.82
357.015	4545.64
357.084	4663.08
357.154	4860.19
357.223	5024.13
357.292	5164.35
357.362	5265.48
357.431	5415.28
357.501	5689.95
357.57	5926.8
357.639	6034.33
357.709	6216.42
357.778	6469.51
357.847	6719.57
357.917	6848.7
357.986	7027.86
358.055	7269.24
358.124	7379.79
358.194	7642.2
358.263	8009.35
358.332	8161.17
358.401	8373.66
358.471	8571.39
358.54	8842.87
358.609	9137.91
358.678	9486.4
358.747	9774.92
358.816	9962.45
358.886	10200.09
358.955	10439.47
359.024	10958.65
359.093	11016.16
359.162	11435.8
359.231	11822.82
359.3	12341.65
359.369	12772.1
359.438	13202.67
359.507	13294.65
359.576	13573.25
359.645	13987.7
359.714	14659.88
359.783	15144.48
359.852	15169.16
359.921	15501.26
359.99	16067.29
360.059	16609.56
360.128	17178.03
360.197	17516.74
360.266	17761.91
360.334	18578.14
360.403	19099.29
360.472	19350.01
360.541	19960.2
360.61	20625.33
360.679	20936.55
360.747	21746.81
360.816	22287.25
360.885	23009.23
360.954	23542.2
361.022	24293.16
361.091	24798.01
361.16	25034.86
361.228	25638.16
361.297	26091.03
361.366	26621.5
361.434	27519.79
361.503	28532.21
361.572	29182.69
361.64	29428.07
361.709	29748.94
361.778	30754.96
361.846	31292.15
361.915	31977.79
361.983	32786.03
362.052	33201.15
362.12	34027.32
362.189	33974.26
362.257	34631.1
362.326	35827.9
362.394	36582.55
362.463	37138.02
362.531	37119.08
362.6	37562.14
362.668	39325.68
362.737	39943.56
362.805	40634.34
362.873	40829.36
362.942	41607.44
363.01	42135.54
363.079	42444.06
363.147	43354.45
363.215	44434.35
363.284	44280.95
363.352	44439.98
363.42	45394.54
363.488	46757.91
363.557	47389.8
363.625	47533.14
363.693	48037.59
363.761	48642.41
363.83	49378.46
363.898	49558.17
363.966	50549.11
364.034	51595.08
364.102	51597.76
364.171	51823.55
364.239	52766.85
364.307	53557.06
364.375	53073.41
364.443	53550.82
364.511	53311.5
364.579	53866.89
364.647	54674.42
364.715	55266.12
364.783	55455.77
364.851	54968.08
364.919	55419.91
364.987	56333.83
365.055	56422.99
365.123	56269.57
365.191	56705.1
365.259	56963.24
365.327	56934.79
365.395	57265.97
365.463	57197.25
365.531	57275.04
365.599	57268.56
365.667	57616.02
365.735	57866.19
365.802	57951.97
365.87	58239.27
365.938	58433.17
366.006	58754.98
366.074	59342.66
366.142	59576.76
366.209	59130.92
366.277	59376.62
366.345	59290.61
366.413	59463.27
366.48	59322.09
366.548	59409.02
366.616	59598.64
366.683	59351.96
366.751	59738.33
366.819	59866.38
366.886	59855.11
366.954	59915.26
367.022	59408.42
367.089	60144.34
367.157	60439.1
367.224	59921.03
367.292	59931.82
367.36	60138.83
367.427	60472.55
367.495	60047.51
367.562	59603.44
367.63	59788.62
367.697	59816.35
367.765	60224.7
367.832	59960.89
367.9	59560.28
367.967	59132.26
368.034	59397.63
368.102	59416.85
368.169	59370.17
368.237	59262.03
368.304	59331.92
368.371	58800.55
368.439	58792.38
368.506	58321.14
368.573	58614.46
368.641	59147.82
368.708	58695.03
368.775	58395.17
368.843	58530.31
368.91	58670.94
368.977	57903.48
369.044	58178.1
369.112	57527.23
369.179	56932.01
369.246	56977.89
369.313	57465.54
369.38	57470.59
369.448	57652.18
369.515	57532.24
369.582	56859.21
369.649	56809.04
369.716	57270.44
369.783	57114.06
369.85	57372.32
369.917	56882.53
369.984	56181.19
370.052	56639.2
370.119	56462.87
370.186	56522.08
370.253	56086.32
370.32	56223.3
370.387	56429.58
370.454	56066.95
370.521	55928.75
370.587	55577.76
370.654	56501.72
370.721	56030
370.788	55671.25
370.855	54813.92
370.922	54798.1
370.989	54792.06
371.056	54854.12
371.123	54566.94
371.189	54025.59
371.256	54265.98
371.323	54352.24
371.39	54277.34
371.457	53911.52
371.523	53853.57
371.59	53457.37
371.657	53680.75
371.724	53838
371.79	53243.24
371.857	53209.61
371.924	52928.42
371.991	52465.56
372.057	52346.42
372.124	51481.56
372.191	51251.18
372.257	51973.64
372.324	51940.72
372.39	51588.42
372.457	50584.6
372.524	50660.9
372.59	51013.27
372.657	50245.46
372.723	50311.52
372.79	49722.34
372.856	48578.51
372.923	48623.26
372.989	49117.38
373.056	48982.84
373.122	48739.37
373.189	47763.63
373.255	47878.25
373.322	47990.94
373.388	47531.14
373.454	47467.43
373.521	46304.82
373.587	46558.64
373.654	45670.89
373.72	46157.76
373.786	45027.25
373.853	44886.04
373.919	44564.93
373.985	44010.19
374.052	44169.28
374.118	42829.72
374.184	43195.19
374.25	43094.68
374.317	42766.46
374.383	41822.39
374.449	41493
374.515	40534.33
374.581	40647.27
374.648	40267.42
374.714	39552.81
374.78	38096.26
374.846	37915.54
374.912	38732.07
374.978	38190.44
375.044	36983.09
375.11	36271.1
375.177	37026.64
375.243	36885.65
375.309	36442.72
375.375	35298.37
375.441	34478.99
375.507	34543.72
375.573	35083.12
375.639	34121.3
375.705	33509.02
375.771	33202.27
375.837	33092.43
375.903	32825.96
375.968	32179.61
376.034	32330.11
376.1	32218.71
376.166	31103.08
376.232	30156.27
376.298	29588.4
376.364	29192.31
376.43	29128.85
376.495	29157.74
376.561	28908.41
376.627	28464.98
376.693	27811.08
376.759	27225.99
376.824	26141.22
376.89	26666.5
376.956	26458.75
377.022	26098.88
377.087	25790.06
377.153	25528.41
377.219	25054.49
377.284	24092.49
377.35	23602.91
377.416	23311.25
377.481	23756.01
377.547	23125.11
377.613	22728.8
377.678	22996.97
377.744	22667.51
377.809	22119.62
377.875	21986.06
377.94	21999.72
378.006	21767.41
378.071	21733.77
378.137	21791.5
378.202	21533.52
378.268	21227.89
378.333	21035.72
378.399	20998.78
378.464	20880.99
378.53	20467.48
378.595	19775.42
378.661	19976.57
378.726	19903.35
378.791	19368.95
378.857	19279.32
378.922	19352.88
378.987	19216.06
379.053	18932.27
379.118	18747.88
379.183	18403.73
379.249	18512.38
379.314	18341.72
379.379	17814.1
379.444	17646.37
379.51	17516.56
379.575	17490.68
379.64	17424.51
379.705	17129.24
379.771	17049.16
379.836	16404.28
379.901	16439.84
379.966	16596.75
380.031	16599.16
380.096	16098.52
380.161	15677.13
380.227	15573.24
380.292	15299.39
380.357	15277.1
380.422	15151.09
380.487	15134.15
380.552	15157.04
380.617	15086.69
380.682	15008.67
380.747	14467.41
380.812	14286.64
380.877	14067.72
380.942	14031.28
381.007	14072.59
381.072	14035.69
381.137	13660.71
381.202	13647.04
381.266	13300.42
381.331	13052.56
381.396	13084.89
381.461	13105.23
381.526	12968.02
381.591	12887.73
381.656	12685.96
381.72	12617.72
381.785	12628.6
381.85	12456.29
381.915	12143.55
381.979	12061.21
382.044	12042.66
382.109	11758.74
382.174	11575.4
382.238	11656.34
382.303	11638.22
382.368	11365.94
382.432	11273.96
382.497	11198.14
382.562	11219.7
382.626	11168.73
382.691	10991.43
382.756	10882.17
382.82	10672.24
382.885	10565.18
382.949	10529.38
383.014	10493.77
383.078	10522.47
383.143	10447.81
383.208	10144.99
383.272	9979.88
383.337	9993.04
383.401	10097.37
383.465	9972.35
383.53	9776.71
383.594	9720.8
383.659	9433.5
383.723	9385.31
383.788	9380.76
383.852	9264.47
383.916	9433.25
383.981	9309.45
384.045	9184.04
384.109	9007.66
384.174	8907.64
384.238	8787.36
384.302	8849.83
384.367	8788.71
384.431	8588.73
384.495	8543.84
384.56	8431.59
384.624	8151.61
384.688	8238.56
384.752	8172.46
384.816	8009.79
384.881	7901.19
384.945	7938.43
385.009	7904.29
385.073	7774.7
385.137	7734.06
385.201	7651.89
385.265	7532.5
385.33	7428.03
385.394	7454.11
385.458	7269.99
385.522	7155.77
385.586	7190.44
385.65	7125.94
385.714	7013.6
385.778	6856.14
385.842	6794.86
385.906	6747.33
385.97	6749.23
386.034	6735.32
386.098	6626.08
386.162	6496.44
386.226	6412.85
386.29	6180.93
386.354	6193.03
386.417	6138.34
386.481	6081.67
386.545	5957.96
386.609	5947.03
386.673	5855.51
386.737	5858.54
386.8	5650
386.864	5552.3
386.928	5620.47
386.992	5542.68
387.056	5529.92
387.119	5421.36
387.183	5300.41
387.247	5170.36
387.31	5150.68
387.374	5085.36
387.438	4958.69
387.502	5027.71
387.565	4887.63
387.629	4779.92
387.692	4748.91
387.756	4555.33
387.82	4544.33
387.883	4587.38
387.947	4458.09
388.01	4429.53
388.074	4328.74
388.138	4281.44
388.201	4221.63
388.265	4179.5
388.328	4169.55
388.392	4101.48
388.455	4032.57
388.519	3960.5
388.582	3932.31
388.645	3900.58
388.709	3943.81
388.772	3924.32
388.836	3848.98
388.899	3779.3
388.962	3706.06
389.026	3631.9
389.089	3627.47
389.153	3558.26
389.216	3571.9
389.279	3531.08
389.343	3519.6
389.406	3486.61
389.469	3409.25
389.532	3384.52
389.596	3300.42
389.659	3288.32
389.722	3224.75
389.785	3214.32
389.848	3176.07
389.912	3167.21
389.975	3100.65
390.038	3070.96
390.101	3057.55
390.164	3055.23
390.227	3041.43
390.291	2989.54
390.354	2989.43
390.417	2956.07
390.48	2899.86
390.543	2872.81
390.606	2787.49
390.669	2765.57
390.732	2787.15
390.795	2715.03
390.858	2683.97
390.921	2656.07
390.984	2576.95
391.047	2486.21
391.11	2453.38
391.173	2455.19
391.236	2408.88
391.299	2375.2
391.362	2319.8
391.424	2252.68
391.487	2210.76
391.55	2193.58
391.613	2151.89
391.676	2181.14
391.739	2181.19
391.802	2182.79
391.864	2196.71
391.927	2166.51
391.99	2158.04
392.053	2158.89
392.115	2147.46
392.178	2158.73
392.241	2158.46
392.304	2130.83
392.366	2108.4
392.429	2093.23
392.492	2073.14
392.554	2066.41
392.617	2047.97
392.68	2002.86
392.742	1998.4
392.805	1997.12
392.867	2022.85
392.93	2015.16
392.992	1996.95
393.055	1928.44
393.118	1906.49
393.18	1881.01
393.243	1934.73
393.305	1930.44
393.368	1897.49
393.43	1858.99
393.493	1833.8
393.555	1805.93
393.618	1808.52
393.68	1807.44
393.742	1778.01
393.805	1805.35
393.867	1763.47
393.93	1760.4
393.992	1740.74
394.054	1728.71
394.117	1723.78
394.179	1702.86
394.241	1658.96
394.304	1649.84
394.366	1640.77
394.428	1620.13
394.49	1612.49
394.553	1568.29
394.615	1569.02
394.677	1564.91
394.739	1571.92
394.802	1549.85
394.864	1500.67
394.926	1499.5
394.988	1512.22
395.05	1511.3
395.112	1514.15
395.174	1485.4
395.237	1465.73
395.299	1461.69
395.361	1452.16
395.423	1422.03
395.485	1392.3
395.547	1389.98
395.609	1397.14
395.671	1397.79
395.733	1373.63
395.795	1377.47
395.857	1373.89
395.919	1347.9
395.981	1356.41
396.043	1342.78
396.105	1320.18
396.167	1307.53
396.229	1318.71
396.291	1300.39
396.352	1290.68
396.414	1265.51
396.476	1264.71
396.538	1258.42
396.6	1261.01
396.662	1253.76
396.724	1220.31
396.785	1202.83
396.847	1192.52
396.909	1190.04
396.971	1191.42
397.032	1175.24
397.094	1165.8
397.156	1149.43
397.218	1140.89
397.279	1129.73
397.341	1126.24
397.403	1123.12
397.464	1113.52
397.526	1098.5
397.588	1095.13
397.649	1074.97
397.711	1084.43
397.772	1084.13
397.834	1075.52
397.896	1080.09
397.957	1062.66
398.019	1061.12
398.08	1037.96
398.142	1029.28
398.203	1030.63
398.265	1013.99
398.326	989.86
398.388	992.56
398.449	997.87
398.511	1007.63
398.572	984.6
398.633	973.83
398.695	968.3
398.756	960.26
398.818	954.8
398.879	955.16
398.94	952.98
399.002	951.1
399.063	930.99
399.124	926.62
399.186	931.88
399.247	910.41
399.308	914.13
399.369	902.42
399.431	887.36
399.492	902.68
399.553	895.93
399.614	890.37
399.676	895.03
399.737	897.3
399.798	886.74
399.859	886.37
399.92	874.32
399.981	869.54
400.042	861.6
400.104	867.59
400.165	856.46
400.226	864.75
400.287	858.75
400.348	855.22
400.409	850.67
400.47	857.03
400.531	842.82
400.592	845.18
400.653	832.79
400.714	816.46
400.775	818.14
400.836	814.99
400.897	804.38
400.958	800.89
401.019	798
401.08	792.65
401.141	785.58
401.201	782.11
401.262	776.65
401.323	764.07
401.384	771.92
401.445	768.06
401.506	767.35
401.567	760.21
401.627	751.48
401.688	749.3
401.749	756.76
401.81	747.95
401.87	743.38
401.931	748.32
401.992	745.9
402.053	745.77
402.113	734.56
402.174	745.97
402.235	735.66
402.295	722.97
402.356	717.71
402.417	725.17
402.477	717.41
402.538	704.16
402.598	713.83
402.659	704.32
402.719	688.55
402.78	695.81
402.841	699.92
402.901	686.67
402.962	694.98
403.022	682.9
403.083	678.95
403.143	677.8
403.204	673.99
403.264	662.01
403.324	664.33
403.385	658.52
403.445	657.62
403.506	650.41
403.566	654.57
403.627	655.56
403.687	651.65
403.747	651.52
403.808	633.77
403.868	630.14
403.928	635.6
403.989	649.52
404.049	640.1
404.109	638.38
404.169	627.25
404.23	625.69
404.29	625.13
404.35	626.99
404.41	622.06
404.47	621.09
404.531	617.19
404.591	620.82
404.651	715.48
404.711	619.95
404.771	598.85
404.831	606.44
404.892	614.53
404.952	609.48
405.012	596.94
405.072	593.61
405.132	597.01
405.192	594.48
405.252	667.91
405.312	593.86
405.372	611.54
405.432	584.2
405.492	583.3
405.552	589.5
405.612	574.14
405.672	573.41
405.732	576.37
405.792	571.41
405.852	573.77
405.912	569.02
405.971	566.84
406.031	566.13
406.091	562.71
406.151	562.34
406.211	558.05
406.271	562.11
406.33	564.66
406.39	551.36
406.45	550.08
406.51	552.97
406.57	546.47
406.629	545.99
406.689	544.8
406.749	548.31
406.808	540.96
406.868	535.82
406.928	538.8
406.988	533
407.047	529.07
407.107	538.74
407.166	538.76
407.226	523.74
407.286	528.77
407.345	525.69
407.405	527.35
407.464	534.03
407.524	515.66
407.584	519.29
407.643	527.07
407.703	518.12
407.762	517.82
407.822	520.28
407.881	512.06
407.941	519.29
408	513.87
408.059	510.75
408.119	506.13
408.178	506.36
408.238	510.15
408.297	510.86
408.356	501.98
408.416	502.73
408.475	505.17
408.535	500.37
408.594	495.04
408.653	499.57
408.712	494.19
408.772	494.65
408.831	487.58
408.89	491.02
408.95	488.64
409.009	493.55
409.068	483.84
409.127	500.05
409.186	488.43
409.246	485.67
409.305	489.78
409.364	486.02
409.423	482.25
409.482	491.3
409.541	484.85
409.6	482.6
409.66	491.67
409.719	481.57
409.778	475.39
409.837	472.45
409.896	479.64
409.955	463.68
410.014	481.38
410.073	484.73
410.132	471.94
410.191	469.33
410.25	466.89
410.309	466.66
410.368	468.34
410.427	470.18
410.486	468.57
410.545	465.65
410.603	473.48
410.662	471.69
410.721	464.21
410.78	465.19
410.839	463.66
410.898	467.51
410.957	461.38
411.015	461.96
411.074	456.97
411.133	466.41
411.192	455.51
411.25	463.77
411.309	449.42
411.368	448.16
411.427	453.76
411.485	458.56
411.544	457.18
411.603	461.8
411.661	449.37
411.72	449.97
411.779	462.37
411.837	452.54
411.896	449.08
411.955	449.67
412.013	444.55
412.072	455.16
412.13	439.66
412.189	439.39
412.247	446.23
412.306	447.74
412.364	444.69
412.423	444.92
412.481	451.44
412.54	440.99
412.598	440.4
412.657	443.06
412.715	438.65
412.774	436.95
412.832	436.43
412.891	442.97
412.949	436.63
413.007	444.39
413.066	433.76
413.124	436.36
413.182	429.35
413.241	433.67
413.299	429.28
413.357	429.45
413.416	433.56
413.474	430.04
413.532	438.26
413.59	434.06
413.649	434.73
413.707	421.91
413.765	433.03
413.823	426.09
413.881	423.34
413.94	429.49
413.998	427.77
414.056	420.1
414.114	424.58
414.172	421.75
414.23	425.11
414.288	431.79
414.347	426.83
414.405	426.71
414.463	436.33
414.521	423.41
414.579	432.04
414.637	424.69
414.695	418.15
414.753	427.93
414.811	422.35
414.869	417.71
414.927	422.86
414.985	421.71
415.043	424.07
415.101	423.32
415.158	418.26
415.216	418.91
415.274	420.35
415.332	420.81
415.39	418.95
415.448	418.13
415.506	422.81
415.563	415.51
415.621	403.04
415.679	413.99
415.737	409.95
415.795	415.12
415.852	412.52
415.91	411.67
415.968	415.07
416.026	412.27
416.083	415.6
416.141	417.74
416.199	418.15
416.256	410.27
416.314	413.88
416.372	414.13
416.429	413.17
416.487	416.36
416.544	406.21
416.602	405.66
416.66	401.82
416.717	412.27
416.775	414.29
416.832	402.42
416.89	407.27
416.947	411.97
417.005	405.22
417.062	404.07
417.12	411.56
417.177	402.9
417.235	405.22
417.292	398.36
417.35	401.62
417.407	409.45
417.464	402.79
417.522	401.04
417.579	404.03
417.637	403.23
417.694	398.29
417.751	403.16
417.809	400.19
417.866	395.88
417.923	405.8
417.981	402.28
418.038	398.24
418.095	396.91
418.152	400.36
418.21	399.37
418.267	399.16
418.324	396.47
418.381	399.21
418.438	388.07
418.496	394.34
418.553	396.47
418.61	391.68
418.667	398.43
418.724	388.85
418.781	399.46
418.838	397.78
418.895	399.64
418.952	396.82
419.01	399.16
419.067	389.61
419.124	397.76
419.181	401.16
419.238	394.96
419.295	395.33
419.352	391.1
419.409	388.65
419.466	394.32
419.523	392.96
419.579	394.04
419.636	394.41
419.693	392.43
419.75	395.37
419.807	391.7
419.864	398.31
419.921	388.14
419.978	391.54
420.034	390.87
420.091	384.1
420.148	394.48
420.205	390.09
420.262	387.59
420.318	393.63
420.375	392.94
420.432	393.21
420.489	385.27
420.545	392.73
420.602	392.59
420.659	389.86
420.715	384.33
420.772	383.48
420.829	382.93
420.885	391.26
420.942	391.19
420.999	387.31
421.055	385.02
421.112	377.07
421.168	382.47
421.225	394.27
421.282	387.86
421.338	378.82
421.395	387.82
421.451	381.76
421.508	398.38
421.564	389.4
421.621	381.99
421.677	381.55
421.734	385.61
421.79	384.26
421.846	388.35
421.903	382.08
421.959	380.47
422.016	381.87
422.072	386.85
422.128	384.28
422.185	381.76
422.241	387.02
422.297	374.09
422.354	390.73
422.41	387.89
422.466	377.6
422.523	386.21
422.579	375.26
422.635	382.15
422.691	389.7
422.748	383.82
422.804	387.8
422.86	405.41
422.916	376.82
422.972	385.55
423.029	379.07
423.085	379.92
423.141	381.62
423.197	384.86
423.253	378.96
423.309	382.45
423.365	376.48
423.421	378.7
423.477	372.6
423.533	389.52
423.589	377.79
423.645	376.29
423.701	377.69
423.757	383.48
423.813	386.95
423.869	378.73
423.925	380.98
423.981	377
424.037	381.21
424.093	375.88
424.149	374.2
424.205	376.11
424.261	381.5
424.317	379.76
424.373	377.92
424.428	373.72
424.484	373.35
424.54	374.96
424.596	380.72
424.652	376.5
424.708	376.55
424.763	371.01
424.819	377.07
424.875	371.72
424.931	375.72
424.986	374.82
425.042	380.06
425.098	375.95
425.153	382.33
425.209	375.26
425.265	383.69
425.32	383.87
425.376	374.09
425.432	383.5
425.487	380.27
425.543	370.37
425.598	376.04
425.654	369.7
425.709	372.64
425.765	379.9
425.82	378.61
425.876	372.96
425.932	373.74
425.987	372.09
426.042	376.36
426.098	385.75
426.153	377.28
426.209	363.3
426.264	367.13
426.32	373.81
426.375	371.04
426.43	375.67
426.486	376.87
426.541	373.29
426.597	374.66
426.652	371.61
426.707	371.82
426.763	362.43
426.818	372.18
426.873	375.79
426.928	375.72
426.984	373.72
427.039	375.7
427.094	365.36
427.149	370.78
427.205	373.86
427.26	373.12
427.315	374.8
427.37	374.04
427.425	367.87
427.48	375.49
427.536	374.25
427.591	367.64
427.646	371.79
427.701	372
427.756	371.33
427.811	368.99
427.866	367.13
427.921	374.32
427.976	372.64
428.031	366.72
428.086	371.72
428.141	365.48
428.196	373.88
428.251	366.33
428.306	364.24
428.361	368.81
428.416	375.83
428.471	365.36
428.526	363.73
428.581	361.6
428.636	363.5
428.691	367.06
428.745	364.28
428.8	368.21
428.855	369.43
428.91	368.9
428.965	367.18
429.02	368.72
429.074	368.58
429.129	382.26
429.184	373.84
429.239	366.88
429.293	364.56
429.348	362.43
429.403	374.13
429.457	369.29
429.512	363.8
429.567	366.58
429.621	365.36
429.676	369.15
429.731	368.56
429.785	376.98
429.84	364.19
429.895	368.19
429.949	375.08
430.004	368.51
430.058	365.62
430.113	368.65
430.167	365.43
430.222	366.86
430.276	362.29
430.331	367.87
430.385	376.55
430.44	368.07
430.494	369.38
430.549	365.25
430.603	370.87
430.657	363.16
430.712	365.23
430.766	362.31
430.821	358.22
430.875	364.93
430.929	368.21
430.984	363.34
431.038	374.82
431.092	365.59
431.147	360.52
431.201	364.81
431.255	369.68
431.309	358.15
431.364	368.99
431.418	361.14
431.472	367.82
431.526	363.85
431.581	365.82
431.635	371.15
431.689	366.24
431.743	358.75
431.797	364.4
431.851	363.09
431.906	366.81
431.96	363.87
432.014	374.16
432.068	364.97
432.122	363.78
432.176	365.3
432.23	369.93
432.284	372.3
432.338	363.6
432.392	358.84
432.446	366.1
432.5	371.17
432.554	367.02
432.608	371.61
432.662	372
432.716	364.54
432.77	363.21
432.824	362.26
432.878	354.85
432.931	358.94
432.985	366.6
433.039	361.07
433.093	363.32
433.147	365.07
433.201	365.87
433.254	360.77
433.308	360.27
433.362	370
433.416	375.05
433.47	364.1
433.523	360.13
433.577	362.86
433.631	364.31
433.684	361.55
433.738	364.72
433.792	358.34
433.846	362.52
433.899	357.37
433.953	354.3
434.006	363.25
434.06	358.57
434.114	361.37
434.167	361.37
434.221	361.37
