Data from QEPB00791_17-14-11-731.txt Node
Date: Mon Jan 20 17:14:11 MST 2020
User: ecestudent
Spectrometer: QEPB0079
Trigger mode: 0
Integration Time (sec): 8.000000E-3
Scans to average: 1
Electric dark correction enabled: true
Nonlinearity correction enabled: false
Boxcar width: 0
XAxis mode: Wavelengths
Number of Pixels in Spectrum: 1044
>>>>>Begin Spectral Data<<<<<
198.864	27.25
199.671	29.25
200.477	28.25
201.284	28.25
202.091	28.25
202.897	28.25
203.704	31.25
204.51	29.25
205.317	29.25
206.123	28.25
206.929	28.25
207.736	34.25
208.542	28.25
209.348	31.25
210.154	31.25
210.96	32.25
211.765	31.25
212.571	31.25
213.377	30.25
214.182	29.25
214.988	32.25
215.793	29.25
216.599	29.25
217.404	30.25
218.209	29.25
219.015	33.25
219.82	35.25
220.625	34.25
221.43	31.25
222.235	27.25
223.039	33.25
223.844	31.25
224.649	32.25
225.453	28.25
226.258	31.25
227.062	34.25
227.867	33.25
228.671	34.25
229.475	31.25
230.28	36.25
231.084	35.25
231.888	36.25
232.692	36.25
233.496	36.25
234.299	37.25
235.103	35.25
235.907	34.25
236.71	32.25
237.514	34.25
238.317	39.25
239.121	34.25
239.924	38.25
240.727	36.25
241.531	40.25
242.334	38.25
243.137	38.25
243.94	38.25
244.743	36.25
245.545	39.25
246.348	36.25
247.151	39.25
247.954	39.25
248.756	39.25
249.559	42.25
250.361	37.25
251.163	42.25
251.965	41.25
252.768	44.25
253.57	44.25
254.372	43.25
255.174	44.25
255.976	43.25
256.777	46.25
257.579	45.25
258.381	48.25
259.183	43.25
259.984	45.25
260.786	50.25
261.587	44.25
262.388	45.25
263.189	47.25
263.991	44.25
264.792	48.25
265.593	48.25
266.394	50.25
267.195	50.25
267.995	47.25
268.796	51.25
269.597	50.25
270.397	48.25
271.198	52.25
271.998	51.25
272.799	53.25
273.599	51.25
274.399	55.25
275.2	57.25
276	55.25
276.8	48.25
277.6	58.25
278.4	57.25
279.199	58.25
279.999	60.25
280.799	58.25
281.598	59.25
282.398	64.25
283.197	65.25
283.997	64.25
284.796	63.25
285.595	64.25
286.395	65.25
287.194	66.25
287.993	64.25
288.792	65.25
289.59	66.25
290.389	71.25
291.188	72.25
291.987	75.25
292.785	75.25
293.584	76.25
294.382	79.25
295.181	76.25
295.979	84.25
296.777	87.25
297.575	84.25
298.373	91.25
299.171	93.25
299.969	91.25
300.767	95.25
301.565	93.25
302.363	96.25
303.16	97.25
303.958	107.25
304.756	108.25
305.553	113.25
306.35	117.25
307.148	117.25
307.945	127.25
308.742	127.25
309.539	131.25
310.336	140.25
311.133	138.25
311.93	155.25
312.727	161.25
313.524	169.25
314.32	172.25
315.117	189.25
315.913	195.25
316.71	207.25
317.506	216.25
318.302	223.25
319.099	241.25
319.895	253.25
320.691	262.25
321.487	278.25
322.283	290.25
323.079	299.25
323.874	314.25
324.67	337.25
325.466	353.25
326.261	376.25
327.057	397.25
327.852	420.25
328.648	460.25
329.443	498.25
330.238	546.25
331.033	607.25
331.828	699.25
332.623	791.25
333.418	899.25
334.213	973.25
335.008	1020.25
335.803	1057.25
336.597	1083.25
337.392	1112.25
338.186	1168.25
338.981	1232.25
339.775	1345.25
340.57	1398.25
341.364	1469.25
342.158	1578.25
342.952	1669.25
343.746	1803.25
344.54	1854.25
345.334	1917.25
346.127	2009.25
346.921	2051.25
347.715	2090.25
348.508	2089.25
349.302	2109.25
350.095	2168.25
350.889	2160.25
351.682	2254.25
352.475	2317.25
353.268	2379.25
354.061	2463.25
354.854	2533.25
355.647	2604.25
356.44	2738.25
357.233	2866.25
358.025	3013.25
358.818	3282.25
359.611	3656.25
360.403	4276.25
361.195	5231.25
361.988	6359.25
362.78	7317.25
363.572	7860.25
364.364	8240.25
365.156	8577.25
365.948	8961.25
366.74	9264.25
367.532	9169.25
368.324	8854.25
369.116	8379.25
369.907	7924.25
370.699	7443.25
371.49	7123.25
372.282	6810.25
373.073	6558.25
373.864	6344.25
374.655	6121.25
375.446	6024.25
376.237	5925.25
377.028	5836.25
377.819	5830.25
378.61	5817.25
379.401	5803.25
380.192	5834.25
380.982	5902.25
381.773	5956.25
382.563	6084.25
383.354	6128.25
384.144	6249.25
384.934	6390.25
385.724	6454.25
386.514	6572.25
387.304	6629.25
388.094	6671.25
388.884	6735.25
389.674	6765.25
390.464	6855.25
391.253	6952.25
392.043	7051.25
392.832	7171.25
393.622	7293.25
394.411	7464.25
395.201	7637.25
395.99	7796.25
396.779	7964.25
397.568	8213.25
398.357	8453.25
399.146	8832.25
399.935	9310.25
400.724	10241.25
401.512	11918.25
402.301	15012.25
403.09	19168.25
403.878	23270.25
404.667	25721.25
405.455	26103.25
406.243	24793.25
407.031	22693.25
407.82	20618.25
408.608	18987.25
409.396	17834.25
410.184	17240.25
410.971	16880.25
411.759	16579.25
412.547	16148.25
413.334	15592.25
414.122	15062.25
414.91	14807.25
415.697	14670.25
416.484	14635.25
417.272	14777.25
418.059	14951.25
418.846	15223.25
419.633	15639.25
420.42	16039.25
421.207	16494.25
421.994	16977.25
422.78	17459.25
423.567	17938.25
424.354	18439.25
425.14	18993.25
425.927	19560.25
426.713	20348.25
427.499	21345.25
428.286	22645.25
429.072	23925.25
429.858	24957.25
430.644	25679.25
431.43	26236.25
432.216	27531.25
433.002	30269.25
433.787	34131.25
434.573	38589.25
435.359	43507.25
436.144	47394.25
436.93	49844.25
437.715	49324.25
438.5	46396.25
439.286	42297.25
440.071	38053.25
440.856	34487.25
441.641	31621.25
442.426	29273.25
443.211	27448.25
443.996	26149.25
444.78	25354.25
445.565	24487.25
446.35	23687.25
447.134	22841.25
447.919	22067.25
448.703	21265.25
449.487	20392.25
450.271	19621.25
451.056	18874.25
451.84	18246.25
452.624	17831.25
453.408	17511.25
454.191	17329.25
454.975	17302.25
455.759	17250.25
456.543	17142.25
457.326	16786.25
458.11	16358.25
458.893	15820.25
459.676	15283.25
460.46	14888.25
461.243	14568.25
462.026	14326.25
462.809	14221.25
463.592	14143.25
464.375	14155.25
465.158	14244.25
465.941	14391.25
466.723	14482.25
467.506	14731.25
468.288	14973.25
469.071	15195.25
469.853	15482.25
470.636	15763.25
471.418	16021.25
472.2	16171.25
472.982	16259.25
473.764	16074.25
474.546	15796.25
475.328	15519.25
476.11	15269.25
476.892	15095.25
477.673	14926.25
478.455	14913.25
479.236	14970.25
480.018	15111.25
480.799	15419.25
481.581	15731.25
482.362	16218.25
483.143	16786.25
483.924	17345.25
484.705	17755.25
485.486	17842.25
486.267	17846.25
487.048	17569.25
487.828	17303.25
488.609	16910.25
489.39	16548.25
490.17	16017.25
490.951	15231.25
491.731	14474.25
492.511	13761.25
493.292	13199.25
494.072	12911.25
494.852	12682.25
495.632	12471.25
496.412	12213.25
497.192	11897.25
497.971	11712.25
498.751	11547.25
499.531	11361.25
500.31	11275.25
501.09	11157.25
501.869	11106.25
502.648	10987.25
503.428	10911.25
504.207	10875.25
504.986	10767.25
505.765	10833.25
506.544	10795.25
507.323	10832.25
508.102	10854.25
508.881	10842.25
509.659	10868.25
510.438	10922.25
511.216	10921.25
511.995	10982.25
512.773	10983.25
513.552	11067.25
514.33	11029.25
515.108	11097.25
515.886	11110.25
516.664	11094.25
517.442	11137.25
518.22	11143.25
518.998	11148.25
519.775	11205.25
520.553	11184.25
521.331	11221.25
522.108	11308.25
522.886	11336.25
523.663	11438.25
524.44	11489.25
525.218	11599.25
525.995	11745.25
526.772	11934.25
527.549	12089.25
528.326	12500.25
529.103	12986.25
529.879	13718.25
530.656	14574.25
531.433	15413.25
532.209	16229.25
532.986	16918.25
533.762	17536.25
534.539	18392.25
535.315	19417.25
536.091	20691.25
536.867	22038.25
537.643	23514.25
538.419	24694.25
539.195	25673.25
539.971	26552.25
540.747	27631.25
541.522	29438.25
542.298	33322.25
543.074	42791.25
543.849	57684.25
544.624	63139.25
545.4	63139.25
546.175	63139.25
546.95	63139.25
547.725	63139.25
548.5	63139.25
549.275	63139.25
550.05	63139.25
550.825	63139.25
551.6	63139.25
552.374	63139.25
553.149	55899.25
553.923	50818.25
554.698	46471.25
555.472	42864.25
556.247	39732.25
557.021	37257.25
557.795	35130.25
558.569	33638.25
559.343	32376.25
560.117	31366.25
560.891	30496.25
561.665	29469.25
562.438	28420.25
563.212	27316.25
563.985	26137.25
564.759	25348.25
565.532	24799.25
566.306	24675.25
567.079	25225.25
567.852	26404.25
568.625	28429.25
569.398	31384.25
570.171	35464.25
570.944	40645.25
571.717	46669.25
572.49	53057.25
573.262	59078.25
574.035	63139.25
574.808	63139.25
575.58	63139.25
576.352	63139.25
577.125	63139.25
577.897	63139.25
578.669	63139.25
579.441	59002.25
580.213	55206.25
580.985	51549.25
581.757	48191.25
582.529	44969.25
583.301	41951.25
584.072	39193.25
584.844	36735.25
585.615	34548.25
586.387	32684.25
587.158	30982.25
587.929	29472.25
588.701	28174.25
589.472	26995.25
590.243	25751.25
591.014	24903.25
591.785	24222.25
592.556	23608.25
593.326	23130.25
594.097	22566.25
594.868	21774.25
595.638	20925.25
596.409	20118.25
597.179	19407.25
597.949	18703.25
598.72	18174.25
599.49	17675.25
600.26	17284.25
601.03	16898.25
601.8	16569.25
602.57	16209.25
603.34	15899.25
604.109	15660.25
604.879	15403.25
605.649	15152.25
606.418	14985.25
607.188	14742.25
607.957	14585.25
608.726	14394.25
609.496	14268.25
610.265	14121.25
611.034	13906.25
611.803	13725.25
612.572	13578.25
613.341	13364.25
614.109	13245.25
614.878	13103.25
615.647	12990.25
616.415	12905.25
617.184	12817.25
617.952	12729.25
618.721	12618.25
619.489	12563.25
620.257	12521.25
621.025	12391.25
621.793	12362.25
622.561	12382.25
623.329	12323.25
624.097	12244.25
624.865	12241.25
625.632	12212.25
626.4	12138.25
627.168	12092.25
627.935	12052.25
628.702	12014.25
629.47	11964.25
630.237	11940.25
631.004	11884.25
631.771	11829.25
632.538	11809.25
633.305	11708.25
634.072	11709.25
634.839	11690.25
635.606	11618.25
636.372	11610.25
637.139	11603.25
637.905	11551.25
638.672	11546.25
639.438	11447.25
640.204	11423.25
640.971	11376.25
641.737	11356.25
642.503	11282.25
643.269	11284.25
644.035	11251.25
644.8	11184.25
645.566	11172.25
646.332	11158.25
647.097	11090.25
647.863	11079.25
648.629	11013.25
649.394	11016.25
650.159	10984.25
650.924	10976.25
651.69	10903.25
652.455	10846.25
653.22	10905.25
653.985	10860.25
654.75	10885.25
655.514	10844.25
656.279	10834.25
657.044	10790.25
657.808	10741.25
658.573	10750.25
659.337	10735.25
660.102	10741.25
660.866	10785.25
661.63	10721.25
662.394	10686.25
663.158	10677.25
663.922	10685.25
664.686	10724.25
665.45	10659.25
666.214	10642.25
666.978	10645.25
667.741	10614.25
668.505	10622.25
669.268	10633.25
670.032	10604.25
670.795	10590.25
671.558	10572.25
672.321	10564.25
673.084	10497.25
673.847	10509.25
674.61	10455.25
675.373	10403.25
676.136	10412.25
676.899	10406.25
677.662	10374.25
678.424	10336.25
679.187	10371.25
679.949	10366.25
680.711	10264.25
681.474	10327.25
682.236	10275.25
682.998	10290.25
683.76	10329.25
684.522	10346.25
685.284	10305.25
686.046	10317.25
686.808	10305.25
687.569	10316.25
688.331	10327.25
689.092	10330.25
689.854	10354.25
690.615	10365.25
691.377	10441.25
692.138	10504.25
692.899	10554.25
693.66	10599.25
694.421	10574.25
695.182	10507.25
695.943	10530.25
696.704	10434.25
697.465	10352.25
698.225	10294.25
698.986	10242.25
699.746	10208.25
700.507	10129.25
701.267	10090.25
702.027	10069.25
702.788	10012.25
703.548	9984.25
704.308	9994.25
705.068	9884.25
705.828	9833.25
706.588	9772.25
707.347	9766.25
708.107	9743.25
708.867	9698.25
709.626	9726.25
710.386	9671.25
711.145	9640.25
711.904	9543.25
712.664	9497.25
713.423	9389.25
714.182	9314.25
714.941	9237.25
715.7	9172.25
716.459	9060.25
717.218	8975.25
717.976	8951.25
718.735	8886.25
719.494	8788.25
720.252	8740.25
721.011	8665.25
721.769	8618.25
722.527	8588.25
723.285	8505.25
724.044	8467.25
724.802	8413.25
725.56	8324.25
726.317	8256.25
727.075	8164.25
727.833	8039.25
728.591	7898.25
729.348	7721.25
730.106	7547.25
730.863	7433.25
731.621	7282.25
732.378	7112.25
733.135	6910.25
733.893	6787.25
734.65	6663.25
735.407	6559.25
736.164	6430.25
736.92	6288.25
737.677	6188.25
738.434	6070.25
739.191	5992.25
739.947	5935.25
740.704	5812.25
741.46	5741.25
742.216	5692.25
742.973	5577.25
743.729	5525.25
744.485	5454.25
745.241	5367.25
745.997	5309.25
746.753	5226.25
747.509	5150.25
748.265	5083.25
749.02	5036.25
749.776	4973.25
750.531	4893.25
751.287	4849.25
752.042	4751.25
752.798	4695.25
753.553	4636.25
754.308	4566.25
755.063	4522.25
755.818	4501.25
756.573	4371.25
757.328	4325.25
758.083	4272.25
758.837	4205.25
759.592	4161.25
760.347	4096.25
761.101	3993.25
761.855	3982.25
762.61	3909.25
763.364	3830.25
764.118	3773.25
764.872	3668.25
765.626	3632.25
766.38	3563.25
767.134	3507.25
767.888	3428.25
768.642	3344.25
769.396	3284.25
770.149	3230.25
770.903	3186.25
771.656	3127.25
772.409	3061.25
773.163	3001.25
773.916	2944.25
774.669	2935.25
775.422	2870.25
776.175	2826.25
776.928	2770.25
777.681	2709.25
778.434	2655.25
779.186	2620.25
779.939	2568.25
780.692	2509.25
781.444	2466.25
782.197	2400.25
782.949	2382.25
783.701	2336.25
784.453	2288.25
785.205	2237.25
785.957	2198.25
786.709	2164.25
787.461	2142.25
788.213	2108.25
788.965	2059.25
789.716	2027.25
790.468	1971.25
791.22	1963.25
791.971	1934.25
792.722	1882.25
793.474	1843.25
794.225	1837.25
794.976	1783.25
795.727	1746.25
796.478	1762.25
797.229	1703.25
797.98	1671.25
798.731	1628.25
799.481	1599.25
800.232	1586.25
800.982	1539.25
801.733	1535.25
802.483	1490.25
803.233	1464.25
803.984	1439.25
804.734	1396.25
805.484	1374.25
806.234	1355.25
806.984	1322.25
807.734	1277.25
808.484	1262.25
809.233	1237.25
809.983	1205.25
810.732	1180.25
811.482	1156.25
812.231	1121.25
812.981	1090.25
813.73	1064.25
814.479	1044.25
815.228	1023.25
815.977	991.25
816.726	983.25
817.475	940.25
818.224	914.25
818.973	902.25
819.721	882.25
820.47	873.25
821.219	865.25
821.967	834.25
822.715	825.25
823.464	804.25
824.212	788.25
824.96	783.25
825.708	788.25
826.456	781.25
827.204	767.25
827.952	754.25
828.7	734.25
829.447	741.25
830.195	733.25
830.942	733.25
831.69	730.25
832.437	711.25
833.185	717.25
833.932	704.25
834.679	717.25
835.426	699.25
836.173	708.25
836.92	682.25
837.667	667.25
838.414	661.25
839.16	646.25
839.907	641.25
840.654	644.25
841.4	631.25
842.147	610.25
842.893	598.25
843.639	592.25
844.385	573.25
845.131	577.25
845.877	560.25
846.623	546.25
847.369	532.25
848.115	520.25
848.861	503.25
849.607	492.25
850.352	497.25
851.098	482.25
851.843	461.25
852.588	447.25
853.334	441.25
854.079	436.25
854.824	421.25
855.569	423.25
856.314	423.25
857.059	413.25
857.804	402.25
858.549	387.25
859.293	386.25
860.038	387.25
860.783	384.25
861.527	377.25
862.271	370.25
863.016	369.25
863.76	357.25
864.504	364.25
865.248	358.25
865.992	362.25
866.736	360.25
867.48	354.25
868.224	357.25
868.968	348.25
869.711	343.25
870.455	343.25
871.198	346.25
871.942	355.25
872.685	344.25
873.428	339.25
874.171	335.25
874.915	327.25
875.658	334.25
876.401	321.25
877.143	329.25
877.886	318.25
878.629	317.25
879.372	318.25
880.114	312.25
880.857	307.25
881.599	311.25
882.342	303.25
883.084	309.25
883.826	310.25
884.568	313.25
885.31	304.25
886.052	305.25
886.794	302.25
887.536	310.25
888.278	308.25
889.019	308.25
889.761	307.25
890.503	304.25
891.244	302.25
891.985	301.25
892.727	300.25
893.468	305.25
894.209	301.25
894.95	311.25
895.691	297.25
896.432	311.25
897.173	305.25
897.914	299.25
898.654	298.25
899.395	292.25
900.136	300.25
900.876	296.25
901.617	296.25
902.357	299.25
903.097	297.25
903.837	297.25
904.577	284.25
905.317	295.25
906.057	288.25
906.797	279.25
907.537	283.25
908.277	272.25
909.016	275.25
909.756	267.25
910.496	261.25
911.235	250.25
911.974	255.25
912.714	250.25
913.453	239.25
914.192	247.25
914.931	241.25
915.67	238.25
916.409	230.25
917.148	228.25
917.886	224.25
918.625	222.25
919.364	222.25
920.102	210.25
920.841	209.25
921.579	204.25
922.317	196.25
923.055	189.25
923.794	180.25
924.532	182.25
925.27	175.25
926.008	172.25
926.745	164.25
927.483	159.25
928.221	155.25
928.958	146.25
929.696	147.25
930.433	137.25
931.171	135.25
931.908	130.25
932.645	126.25
933.383	114.25
934.12	107.25
934.857	103.25
935.594	96.25
936.33	85.25
937.067	83.25
937.804	82.25
938.541	84.25
939.277	72.25
940.014	70.25
940.75	66.25
941.486	61.25
942.223	61.25
942.959	62.25
943.695	60.25
944.431	60.25
945.167	58.25
945.903	52.25
946.638	53.25
947.374	54.25
948.11	48.25
948.845	48.25
949.581	48.25
950.316	47.25
951.052	48.25
951.787	44.25
952.522	45.25
953.257	41.25
953.992	43.25
954.727	41.25
955.462	43.25
956.197	41.25
956.932	39.25
957.666	39.25
958.401	35.25
959.135	40.25
959.87	38.25
960.604	35.25
961.339	38.25
962.073	38.25
962.807	40.25
963.541	36.25
964.275	40.25
965.009	37.25
965.743	37.25
966.476	38.25
967.21	36.25
967.944	37.25
968.677	39.25
969.411	40.25
970.144	39.25
970.877	36.25
971.611	41.25
972.344	41.25
973.077	40.25
973.81	38.25
974.543	40.25
975.276	39.25
976.008	43.25
976.741	40.25
977.474	42.25
978.206	43.25
978.939	39.25
979.671	39.25
980.403	43.25
981.136	39.25
981.868	41.25
982.6	42.25
983.332	41.25
984.064	44.25
984.796	42.25
985.527	46.25
986.259	44.25
986.991	3.25
987.722	-0.75
988.454	1.25
989.185	-1.75
989.917	34.25
990.648	26.25
991.379	26.25
992.11	32.25
992.841	29.25
993.572	28.25
994.303	46.25
995.034	42.25
995.764	45.25
996.495	45.25
997.226	43.25
997.956	50.25
998.687	-0.75
999.417	-0.75
1000.147	0.25
1000.877	-0.75
