Data from QEPB00791_17-18-57-140.txt Node
Date: Mon Jan 20 17:18:57 MST 2020
User: ecestudent
Spectrometer: QEPB0079
Trigger mode: 0
Integration Time (sec): 8.000000E-3
Scans to average: 1
Electric dark correction enabled: true
Nonlinearity correction enabled: false
Boxcar width: 0
XAxis mode: Wavelengths
Number of Pixels in Spectrum: 1044
>>>>>Begin Spectral Data<<<<<
198.864	25.5
199.671	28.5
200.477	28.5
201.284	27.5
202.091	30.5
202.897	25.5
203.704	29.5
204.51	25.5
205.317	27.5
206.123	28.5
206.929	26.5
207.736	30.5
208.542	29.5
209.348	31.5
210.154	23.5
210.96	28.5
211.765	28.5
212.571	29.5
213.377	31.5
214.182	29.5
214.988	28.5
215.793	25.5
216.599	25.5
217.404	28.5
218.209	29.5
219.015	30.5
219.82	31.5
220.625	31.5
221.43	33.5
222.235	28.5
223.039	24.5
223.844	29.5
224.649	28.5
225.453	31.5
226.258	33.5
227.062	27.5
227.867	33.5
228.671	31.5
229.475	29.5
230.28	29.5
231.084	28.5
231.888	32.5
232.692	28.5
233.496	32.5
234.299	36.5
235.103	31.5
235.907	32.5
236.71	28.5
237.514	28.5
238.317	31.5
239.121	31.5
239.924	33.5
240.727	31.5
241.531	31.5
242.334	31.5
243.137	31.5
243.94	32.5
244.743	32.5
245.545	35.5
246.348	33.5
247.151	33.5
247.954	30.5
248.756	37.5
249.559	35.5
250.361	31.5
251.163	38.5
251.965	34.5
252.768	37.5
253.57	38.5
254.372	35.5
255.174	39.5
255.976	32.5
256.777	38.5
257.579	37.5
258.381	36.5
259.183	38.5
259.984	39.5
260.786	43.5
261.587	35.5
262.388	43.5
263.189	39.5
263.991	40.5
264.792	39.5
265.593	39.5
266.394	40.5
267.195	39.5
267.995	43.5
268.796	42.5
269.597	42.5
270.397	44.5
271.198	45.5
271.998	44.5
272.799	45.5
273.599	46.5
274.399	46.5
275.2	46.5
276	46.5
276.8	49.5
277.6	47.5
278.4	45.5
279.199	50.5
279.999	50.5
280.799	49.5
281.598	56.5
282.398	49.5
283.197	54.5
283.997	54.5
284.796	54.5
285.595	59.5
286.395	56.5
287.194	62.5
287.993	56.5
288.792	63.5
289.59	63.5
290.389	64.5
291.188	65.5
291.987	67.5
292.785	75.5
293.584	71.5
294.382	79.5
295.181	82.5
295.979	85.5
296.777	86.5
297.575	92.5
298.373	100.5
299.171	104.5
299.969	111.5
300.767	118.5
301.565	122.5
302.363	130.5
303.16	142.5
303.958	147.5
304.756	149.5
305.553	156.5
306.35	168.5
307.148	168.5
307.945	184.5
308.742	195.5
309.539	212.5
310.336	221.5
311.133	236.5
311.93	243.5
312.727	264.5
313.524	284.5
314.32	298.5
315.117	318.5
315.913	317.5
316.71	309.5
317.506	302.5
318.302	301.5
319.099	297.5
319.895	291.5
320.691	288.5
321.487	286.5
322.283	279.5
323.079	286.5
323.874	268.5
324.67	269.5
325.466	265.5
326.261	275.5
327.057	260.5
327.852	271.5
328.648	268.5
329.443	275.5
330.238	288.5
331.033	306.5
331.828	330.5
332.623	357.5
333.418	370.5
334.213	375.5
335.008	364.5
335.803	336.5
336.597	333.5
337.392	315.5
338.186	312.5
338.981	310.5
339.775	331.5
340.57	320.5
341.364	321.5
342.158	321.5
342.952	326.5
343.746	338.5
344.54	337.5
345.334	339.5
346.127	345.5
346.921	348.5
347.715	348.5
348.508	350.5
349.302	363.5
350.095	359.5
350.889	360.5
351.682	360.5
352.475	381.5
353.268	395.5
354.061	411.5
354.854	422.5
355.647	431.5
356.44	439.5
357.233	453.5
358.025	481.5
358.818	513.5
359.611	548.5
360.403	612.5
361.195	680.5
361.988	802.5
362.78	888.5
363.572	969.5
364.364	1058.5
365.156	1128.5
365.948	1229.5
366.74	1322.5
367.532	1391.5
368.324	1418.5
369.116	1467.5
369.907	1481.5
370.699	1494.5
371.49	1518.5
372.282	1555.5
373.073	1583.5
373.864	1626.5
374.655	1655.5
375.446	1701.5
376.237	1757.5
377.028	1817.5
377.819	1906.5
378.61	1998.5
379.401	2060.5
380.192	2204.5
380.982	2343.5
381.773	2476.5
382.563	2694.5
383.354	2911.5
384.144	3195.5
384.934	3511.5
385.724	3839.5
386.514	4227.5
387.304	4625.5
388.094	5038.5
388.884	5518.5
389.674	5960.5
390.464	6454.5
391.253	6949.5
392.043	7440.5
392.832	7876.5
393.622	8313.5
394.411	8773.5
395.201	9180.5
395.99	9571.5
396.779	9955.5
397.568	10372.5
398.357	10787.5
399.146	11287.5
399.935	11985.5
400.724	13161.5
401.512	15516.5
402.301	19617.5
403.09	25030.5
403.878	30272.5
404.667	33357.5
405.455	33647.5
406.243	31793.5
407.031	28690.5
407.82	25895.5
408.608	23607.5
409.396	21940.5
410.184	21108.5
410.971	20469.5
411.759	19922.5
412.547	19261.5
413.334	18563.5
414.122	17859.5
414.91	17323.5
415.697	17096.5
416.484	16950.5
417.272	16958.5
418.059	17133.5
418.846	17313.5
419.633	17634.5
420.42	18061.5
421.207	18458.5
421.994	18888.5
422.78	19426.5
423.567	19851.5
424.354	20284.5
425.14	20751.5
425.927	21308.5
426.713	22077.5
427.499	23081.5
428.286	24383.5
429.072	25659.5
429.858	26694.5
430.644	27293.5
431.43	27875.5
432.216	29036.5
433.002	31835.5
433.787	35725.5
434.573	40318.5
435.359	45190.5
436.144	49203.5
436.93	51543.5
437.715	51026.5
438.5	47917.5
439.286	43537.5
440.071	39212.5
440.856	35467.5
441.641	32337.5
442.426	29997.5
443.211	28123.5
443.996	26846.5
444.78	25798.5
445.565	24939.5
446.35	24196.5
447.134	23296.5
447.919	22491.5
448.703	21643.5
449.487	20799.5
450.271	19993.5
451.056	19237.5
451.84	18571.5
452.624	18115.5
453.408	17799.5
454.191	17610.5
454.975	17543.5
455.759	17474.5
456.543	17335.5
457.326	17080.5
458.11	16636.5
458.893	16013.5
459.676	15516.5
460.46	15085.5
461.243	14754.5
462.026	14547.5
462.809	14425.5
463.592	14280.5
464.375	14323.5
465.158	14444.5
465.941	14526.5
466.723	14738.5
467.506	14975.5
468.288	15153.5
469.071	15396.5
469.853	15668.5
470.636	15921.5
471.418	16207.5
472.2	16350.5
472.982	16362.5
473.764	16235.5
474.546	15977.5
475.328	15709.5
476.11	15435.5
476.892	15231.5
477.673	15124.5
478.455	15049.5
479.236	15118.5
480.018	15330.5
480.799	15624.5
481.581	15971.5
482.362	16421.5
483.143	16993.5
483.924	17516.5
484.705	17907.5
485.486	18072.5
486.267	17968.5
487.048	17783.5
487.828	17455.5
488.609	17116.5
489.39	16655.5
490.17	16168.5
490.951	15425.5
491.731	14575.5
492.511	13892.5
493.292	13337.5
494.072	13080.5
494.852	12802.5
495.632	12604.5
496.412	12302.5
497.192	12001.5
497.971	11807.5
498.751	11624.5
499.531	11449.5
500.31	11385.5
501.09	11319.5
501.869	11181.5
502.648	11077.5
503.428	11004.5
504.207	10955.5
504.986	10888.5
505.765	10896.5
506.544	10913.5
507.323	10948.5
508.102	10938.5
508.881	10976.5
509.659	10991.5
510.438	10944.5
511.216	11009.5
511.995	11061.5
512.773	11122.5
513.552	11165.5
514.33	11139.5
515.108	11160.5
515.886	11222.5
516.664	11200.5
517.442	11248.5
518.22	11209.5
518.998	11226.5
519.775	11251.5
520.553	11348.5
521.331	11347.5
522.108	11397.5
522.886	11447.5
523.663	11532.5
524.44	11550.5
525.218	11756.5
525.995	11874.5
526.772	12033.5
527.549	12283.5
528.326	12623.5
529.103	13074.5
529.879	13874.5
530.656	14696.5
531.433	15571.5
532.209	16370.5
532.986	16988.5
533.762	17758.5
534.539	18574.5
535.315	19551.5
536.091	20895.5
536.867	22275.5
537.643	23693.5
538.419	24895.5
539.195	25972.5
539.971	26850.5
540.747	27949.5
541.522	29757.5
542.298	33772.5
543.074	43286.5
543.849	58240.5
544.624	63139.5
545.4	63139.5
546.175	63139.5
546.95	63139.5
547.725	63139.5
548.5	63139.5
549.275	63139.5
550.05	63139.5
550.825	63139.5
551.6	63139.5
552.374	63139.5
553.149	56602.5
553.923	51279.5
554.698	46943.5
555.472	43286.5
556.247	40089.5
557.021	37409.5
557.795	35363.5
558.569	33899.5
559.343	32672.5
560.117	31654.5
560.891	30732.5
561.665	29724.5
562.438	28670.5
563.212	27499.5
563.985	26422.5
564.759	25590.5
565.532	25042.5
566.306	24965.5
567.079	25471.5
567.852	26708.5
568.625	28771.5
569.398	31775.5
570.171	35859.5
570.944	41225.5
571.717	47184.5
572.49	53618.5
573.262	59838.5
574.035	63139.5
574.808	63139.5
575.58	63139.5
576.352	63139.5
577.125	63139.5
577.897	63139.5
578.669	63139.5
579.441	59623.5
580.213	55777.5
580.985	52086.5
581.757	48669.5
582.529	45467.5
583.301	42357.5
584.072	39617.5
584.844	37107.5
585.615	34880.5
586.387	32932.5
587.158	31294.5
587.929	29861.5
588.701	28444.5
589.472	27180.5
590.243	26116.5
591.014	25077.5
591.785	24402.5
592.556	23808.5
593.326	23345.5
594.097	22680.5
594.868	21912.5
595.638	21177.5
596.409	20322.5
597.179	19609.5
597.949	18922.5
598.72	18362.5
599.49	17914.5
600.26	17399.5
601.03	17023.5
601.8	16663.5
602.57	16357.5
603.34	16101.5
604.109	15764.5
604.879	15522.5
605.649	15320.5
606.418	15104.5
607.188	14878.5
607.957	14734.5
608.726	14546.5
609.496	14355.5
610.265	14214.5
611.034	14017.5
611.803	13800.5
612.572	13685.5
613.341	13500.5
614.109	13320.5
614.878	13260.5
615.647	13095.5
616.415	13032.5
617.184	12906.5
617.952	12784.5
618.721	12765.5
619.489	12613.5
620.257	12594.5
621.025	12494.5
621.793	12404.5
622.561	12415.5
623.329	12402.5
624.097	12342.5
624.865	12327.5
625.632	12278.5
626.4	12194.5
627.168	12198.5
627.935	12146.5
628.702	12085.5
629.47	12062.5
630.237	12035.5
631.004	11943.5
631.771	11920.5
632.538	11887.5
633.305	11885.5
634.072	11801.5
634.839	11721.5
635.606	11718.5
636.372	11689.5
637.139	11673.5
637.905	11596.5
638.672	11611.5
639.438	11542.5
640.204	11501.5
640.971	11443.5
641.737	11448.5
642.503	11340.5
643.269	11397.5
644.035	11331.5
644.8	11334.5
645.566	11258.5
646.332	11211.5
647.097	11146.5
647.863	11119.5
648.629	11123.5
649.394	11063.5
650.159	11023.5
650.924	11026.5
651.69	11012.5
652.455	11004.5
653.22	10920.5
653.985	10913.5
654.75	10957.5
655.514	10914.5
656.279	10847.5
657.044	10874.5
657.808	10821.5
658.573	10820.5
659.337	10844.5
660.102	10868.5
660.866	10782.5
661.63	10786.5
662.394	10810.5
663.158	10752.5
663.922	10758.5
664.686	10686.5
665.45	10718.5
666.214	10727.5
666.978	10689.5
667.741	10723.5
668.505	10748.5
669.268	10709.5
670.032	10663.5
670.795	10658.5
671.558	10625.5
672.321	10602.5
673.084	10537.5
673.847	10537.5
674.61	10505.5
675.373	10494.5
676.136	10444.5
676.899	10462.5
677.662	10432.5
678.424	10452.5
679.187	10412.5
679.949	10384.5
680.711	10387.5
681.474	10363.5
682.236	10361.5
682.998	10362.5
683.76	10340.5
684.522	10370.5
685.284	10364.5
686.046	10369.5
686.808	10387.5
687.569	10310.5
688.331	10361.5
689.092	10358.5
689.854	10400.5
690.615	10470.5
691.377	10488.5
692.138	10551.5
692.899	10618.5
693.66	10616.5
694.421	10637.5
695.182	10597.5
695.943	10586.5
696.704	10532.5
697.465	10398.5
698.225	10355.5
698.986	10341.5
699.746	10251.5
700.507	10199.5
701.267	10129.5
702.027	10109.5
702.788	10098.5
703.548	10021.5
704.308	9999.5
705.068	9965.5
705.828	9901.5
706.588	9843.5
707.347	9792.5
708.107	9773.5
708.867	9783.5
709.626	9789.5
710.386	9759.5
711.145	9666.5
711.904	9564.5
712.664	9558.5
713.423	9430.5
714.182	9380.5
714.941	9305.5
715.7	9173.5
716.459	9171.5
717.218	9118.5
717.976	8979.5
718.735	8955.5
719.494	8874.5
720.252	8791.5
721.011	8709.5
721.769	8700.5
722.527	8644.5
723.285	8550.5
724.044	8501.5
724.802	8486.5
725.56	8378.5
726.317	8313.5
727.075	8177.5
727.833	8103.5
728.591	7973.5
729.348	7773.5
730.106	7585.5
730.863	7462.5
731.621	7319.5
732.378	7143.5
733.135	6958.5
733.893	6805.5
734.65	6702.5
735.407	6571.5
736.164	6461.5
736.92	6315.5
737.677	6222.5
738.434	6130.5
739.191	6037.5
739.947	5959.5
740.704	5839.5
741.46	5774.5
742.216	5718.5
742.973	5577.5
743.729	5561.5
744.485	5465.5
745.241	5404.5
745.997	5308.5
746.753	5289.5
747.509	5215.5
748.265	5110.5
749.02	5043.5
749.776	4953.5
750.531	4932.5
751.287	4869.5
752.042	4801.5
752.798	4710.5
753.553	4673.5
754.308	4597.5
755.063	4541.5
755.818	4473.5
756.573	4433.5
757.328	4349.5
758.083	4309.5
758.837	4229.5
759.592	4150.5
760.347	4089.5
761.101	4045.5
761.855	3980.5
762.61	3911.5
763.364	3863.5
764.118	3795.5
764.872	3716.5
765.626	3664.5
766.38	3577.5
767.134	3508.5
767.888	3443.5
768.642	3369.5
769.396	3288.5
770.149	3236.5
770.903	3183.5
771.656	3112.5
772.409	3080.5
773.163	3010.5
773.916	2973.5
774.669	2936.5
775.422	2878.5
776.175	2824.5
776.928	2752.5
777.681	2699.5
778.434	2671.5
779.186	2605.5
779.939	2570.5
780.692	2523.5
781.444	2447.5
782.197	2415.5
782.949	2387.5
783.701	2345.5
784.453	2314.5
785.205	2248.5
785.957	2205.5
786.709	2176.5
787.461	2129.5
788.213	2106.5
788.965	2080.5
789.716	2020.5
790.468	2004.5
791.22	1957.5
791.971	1934.5
792.722	1897.5
793.474	1864.5
794.225	1829.5
794.976	1793.5
795.727	1760.5
796.478	1743.5
797.229	1707.5
797.98	1669.5
798.731	1630.5
799.481	1608.5
800.232	1575.5
800.982	1537.5
801.733	1522.5
802.483	1491.5
803.233	1462.5
803.984	1420.5
804.734	1401.5
805.484	1359.5
806.234	1346.5
806.984	1314.5
807.734	1273.5
808.484	1256.5
809.233	1220.5
809.983	1192.5
810.732	1174.5
811.482	1148.5
812.231	1110.5
812.981	1091.5
813.73	1060.5
814.479	1046.5
815.228	1023.5
815.977	1002.5
816.726	970.5
817.475	951.5
818.224	921.5
818.973	908.5
819.721	889.5
820.47	888.5
821.219	858.5
821.967	845.5
822.715	835.5
823.464	812.5
824.212	813.5
824.96	794.5
825.708	793.5
826.456	783.5
827.204	772.5
827.952	767.5
828.7	755.5
829.447	740.5
830.195	740.5
830.942	749.5
831.69	733.5
832.437	732.5
833.185	720.5
833.932	702.5
834.679	706.5
835.426	692.5
836.173	698.5
836.92	692.5
837.667	675.5
838.414	658.5
839.16	653.5
839.907	641.5
840.654	652.5
841.4	636.5
842.147	629.5
842.893	589.5
843.639	594.5
844.385	586.5
845.131	568.5
845.877	560.5
846.623	550.5
847.369	525.5
848.115	517.5
848.861	504.5
849.607	490.5
850.352	480.5
851.098	485.5
851.843	463.5
852.588	454.5
853.334	441.5
854.079	423.5
854.824	426.5
855.569	424.5
856.314	415.5
857.059	407.5
857.804	399.5
858.549	390.5
859.293	382.5
860.038	377.5
860.783	376.5
861.527	377.5
862.271	367.5
863.016	369.5
863.76	359.5
864.504	358.5
865.248	351.5
865.992	353.5
866.736	356.5
867.48	347.5
868.224	355.5
868.968	346.5
869.711	339.5
870.455	342.5
871.198	347.5
871.942	343.5
872.685	343.5
873.428	341.5
874.171	334.5
874.915	332.5
875.658	327.5
876.401	332.5
877.143	324.5
877.886	331.5
878.629	326.5
879.372	316.5
880.114	310.5
880.857	312.5
881.599	314.5
882.342	311.5
883.084	313.5
883.826	311.5
884.568	308.5
885.31	314.5
886.052	309.5
886.794	308.5
887.536	306.5
888.278	308.5
889.019	316.5
889.761	317.5
890.503	319.5
891.244	314.5
891.985	309.5
892.727	309.5
893.468	303.5
894.209	305.5
894.95	312.5
895.691	311.5
896.432	311.5
897.173	309.5
897.914	306.5
898.654	306.5
899.395	301.5
900.136	308.5
900.876	300.5
901.617	298.5
902.357	296.5
903.097	302.5
903.837	293.5
904.577	281.5
905.317	288.5
906.057	285.5
906.797	282.5
907.537	282.5
908.277	279.5
909.016	275.5
909.756	264.5
910.496	267.5
911.235	261.5
911.974	260.5
912.714	255.5
913.453	257.5
914.192	248.5
914.931	248.5
915.67	236.5
916.409	232.5
917.148	228.5
917.886	225.5
918.625	210.5
919.364	216.5
920.102	210.5
920.841	206.5
921.579	197.5
922.317	192.5
923.055	190.5
923.794	185.5
924.532	179.5
925.27	173.5
926.008	169.5
926.745	167.5
927.483	160.5
928.221	153.5
928.958	142.5
929.696	135.5
930.433	136.5
931.171	133.5
931.908	125.5
932.645	119.5
933.383	114.5
934.12	103.5
934.857	101.5
935.594	96.5
936.33	92.5
937.067	85.5
937.804	81.5
938.541	74.5
939.277	75.5
940.014	67.5
940.75	61.5
941.486	63.5
942.223	59.5
942.959	61.5
943.695	60.5
944.431	55.5
945.167	57.5
945.903	57.5
946.638	51.5
947.374	47.5
948.11	47.5
948.845	46.5
949.581	47.5
950.316	46.5
951.052	43.5
951.787	46.5
952.522	45.5
953.257	42.5
953.992	42.5
954.727	39.5
955.462	44.5
956.197	37.5
956.932	36.5
957.666	38.5
958.401	38.5
959.135	35.5
959.87	36.5
960.604	36.5
961.339	36.5
962.073	37.5
962.807	38.5
963.541	33.5
964.275	41.5
965.009	35.5
965.743	37.5
966.476	38.5
967.21	40.5
967.944	35.5
968.677	38.5
969.411	38.5
970.144	35.5
970.877	39.5
971.611	38.5
972.344	35.5
973.077	41.5
973.81	38.5
974.543	42.5
975.276	38.5
976.008	39.5
976.741	39.5
977.474	38.5
978.206	43.5
978.939	38.5
979.671	41.5
980.403	45.5
981.136	43.5
981.868	42.5
982.6	43.5
983.332	42.5
984.064	42.5
984.796	40.5
985.527	41.5
986.259	41.5
986.991	3.5
987.722	0.5
988.454	-0.5
989.185	-1.5
989.917	26.5
990.648	27.5
991.379	26.5
992.11	25.5
992.841	25.5
993.572	28.5
994.303	45.5
995.034	40.5
995.764	45.5
996.495	45.5
997.226	46.5
997.956	46.5
998.687	0.5
999.417	-1.5
1000.147	-1.5
1000.877	0.5
