Data from QEPB00791_17-10-54-177.txt Node
Date: Mon Jan 20 17:10:54 MST 2020
User: ecestudent
Spectrometer: QEPB0079
Trigger mode: 0
Integration Time (sec): 8.000000E-3
Scans to average: 1
Electric dark correction enabled: true
Nonlinearity correction enabled: false
Boxcar width: 0
XAxis mode: Wavelengths
Number of Pixels in Spectrum: 1044
>>>>>Begin Spectral Data<<<<<
198.864	35.25
199.671	30.25
200.477	34.25
201.284	32.25
202.091	32.25
202.897	32.25
203.704	33.25
204.51	31.25
205.317	32.25
206.123	32.25
206.929	32.25
207.736	33.25
208.542	35.25
209.348	32.25
210.154	36.25
210.96	31.25
211.765	34.25
212.571	31.25
213.377	33.25
214.182	35.25
214.988	34.25
215.793	37.25
216.599	35.25
217.404	34.25
218.209	35.25
219.015	33.25
219.82	36.25
220.625	36.25
221.43	37.25
222.235	32.25
223.039	38.25
223.844	35.25
224.649	33.25
225.453	38.25
226.258	36.25
227.062	40.25
227.867	39.25
228.671	42.25
229.475	36.25
230.28	36.25
231.084	39.25
231.888	39.25
232.692	37.25
233.496	40.25
234.299	40.25
235.103	44.25
235.907	40.25
236.71	40.25
237.514	40.25
238.317	44.25
239.121	40.25
239.924	43.25
240.727	42.25
241.531	41.25
242.334	41.25
243.137	47.25
243.94	46.25
244.743	47.25
245.545	45.25
246.348	48.25
247.151	46.25
247.954	47.25
248.756	47.25
249.559	47.25
250.361	50.25
251.163	49.25
251.965	49.25
252.768	47.25
253.57	53.25
254.372	52.25
255.174	54.25
255.976	56.25
256.777	58.25
257.579	53.25
258.381	57.25
259.183	56.25
259.984	56.25
260.786	56.25
261.587	56.25
262.388	58.25
263.189	58.25
263.991	56.25
264.792	57.25
265.593	62.25
266.394	60.25
267.195	63.25
267.995	58.25
268.796	64.25
269.597	65.25
270.397	66.25
271.198	67.25
271.998	65.25
272.799	70.25
273.599	67.25
274.399	69.25
275.2	73.25
276	73.25
276.8	78.25
277.6	77.25
278.4	79.25
279.199	78.25
279.999	86.25
280.799	85.25
281.598	87.25
282.398	86.25
283.197	94.25
283.997	92.25
284.796	93.25
285.595	99.25
286.395	97.25
287.194	104.25
287.993	104.25
288.792	107.25
289.59	112.25
290.389	113.25
291.188	122.25
291.987	126.25
292.785	128.25
293.584	139.25
294.382	146.25
295.181	156.25
295.979	161.25
296.777	167.25
297.575	180.25
298.373	191.25
299.171	200.25
299.969	217.25
300.767	229.25
301.565	252.25
302.363	268.25
303.16	279.25
303.958	286.25
304.756	307.25
305.553	318.25
306.35	338.25
307.148	365.25
307.945	386.25
308.742	426.25
309.539	452.25
310.336	490.25
311.133	535.25
311.93	561.25
312.727	613.25
313.524	673.25
314.32	737.25
315.117	772.25
315.913	798.25
316.71	829.25
317.506	831.25
318.302	848.25
319.099	855.25
319.895	872.25
320.691	874.25
321.487	893.25
322.283	923.25
323.079	954.25
323.874	980.25
324.67	985.25
325.466	1012.25
326.261	1037.25
327.057	1066.25
327.852	1110.25
328.648	1173.25
329.443	1250.25
330.238	1352.25
331.033	1473.25
331.828	1644.25
332.623	1841.25
333.418	2034.25
334.213	2141.25
335.008	2149.25
335.803	2103.25
336.597	2070.25
337.392	2054.25
338.186	2106.25
338.981	2134.25
339.775	2222.25
340.57	2278.25
341.364	2369.25
342.158	2486.25
342.952	2579.25
343.746	2710.25
344.54	2798.25
345.334	2879.25
346.127	2935.25
346.921	2971.25
347.715	3011.25
348.508	3038.25
349.302	3059.25
350.095	3054.25
350.889	3127.25
351.682	3159.25
352.475	3275.25
353.268	3347.25
354.061	3430.25
354.854	3547.25
355.647	3636.25
356.44	3764.25
357.233	3976.25
358.025	4224.25
358.818	4584.25
359.611	5111.25
360.403	6014.25
361.195	7403.25
361.988	9105.25
362.78	10689.25
363.572	11637.25
364.364	12367.25
365.156	12987.25
365.948	13652.25
366.74	14098.25
367.532	13924.25
368.324	13371.25
369.116	12688.25
369.907	11896.25
370.699	11239.25
371.49	10586.25
372.282	10045.25
373.073	9616.25
373.864	9285.25
374.655	8962.25
375.446	8672.25
376.237	8489.25
377.028	8370.25
377.819	8264.25
378.61	8215.25
379.401	8156.25
380.192	8129.25
380.982	8180.25
381.773	8199.25
382.563	8270.25
383.354	8387.25
384.144	8521.25
384.934	8655.25
385.724	8718.25
386.514	8828.25
387.304	8859.25
388.094	8932.25
388.884	8954.25
389.674	8976.25
390.464	9069.25
391.253	9117.25
392.043	9274.25
392.832	9398.25
393.622	9588.25
394.411	9786.25
395.201	9904.25
395.99	10110.25
396.779	10318.25
397.568	10552.25
398.357	10785.25
399.146	11219.25
399.935	11754.25
400.724	12857.25
401.512	15010.25
402.301	18930.25
403.09	24211.25
403.878	29248.25
404.667	32120.25
405.455	32241.25
406.243	30260.25
407.031	27310.25
407.82	24472.25
408.608	22343.25
409.396	20785.25
410.184	19873.25
410.971	19299.25
411.759	18812.25
412.547	18156.25
413.334	17459.25
414.122	16783.25
414.91	16268.25
415.697	16019.25
416.484	15924.25
417.272	15929.25
418.059	16102.25
418.846	16314.25
419.633	16540.25
420.42	16918.25
421.207	17308.25
421.994	17699.25
422.78	18150.25
423.567	18611.25
424.354	18984.25
425.14	19434.25
425.927	19975.25
426.713	20586.25
427.499	21565.25
428.286	22768.25
429.072	24045.25
429.858	24963.25
430.644	25550.25
431.43	26097.25
432.216	27187.25
433.002	29928.25
433.787	33959.25
434.573	38611.25
435.359	43619.25
436.144	47567.25
436.93	49428.25
437.715	48624.25
438.5	45433.25
439.286	41105.25
440.071	36916.25
440.856	33272.25
441.641	30328.25
442.426	28083.25
443.211	26308.25
443.996	25054.25
444.78	24115.25
445.565	23332.25
446.35	22650.25
447.134	21816.25
447.919	21053.25
448.703	20254.25
449.487	19455.25
450.271	18705.25
451.056	17892.25
451.84	17348.25
452.624	16892.25
453.408	16563.25
454.191	16450.25
454.975	16369.25
455.759	16360.25
456.543	16168.25
457.326	15910.25
458.11	15441.25
458.893	14978.25
459.676	14491.25
460.46	14045.25
461.243	13708.25
462.026	13544.25
462.809	13415.25
463.592	13344.25
464.375	13404.25
465.158	13423.25
465.941	13566.25
466.723	13748.25
467.506	13914.25
468.288	14127.25
469.071	14344.25
469.853	14560.25
470.636	14835.25
471.418	15079.25
472.2	15264.25
472.982	15269.25
473.764	15139.25
474.546	14912.25
475.328	14640.25
476.11	14367.25
476.892	14249.25
477.673	14074.25
478.455	14046.25
479.236	14084.25
480.018	14245.25
480.799	14553.25
481.581	14875.25
482.362	15290.25
483.143	15822.25
483.924	16291.25
484.705	16732.25
485.486	16849.25
486.267	16818.25
487.048	16548.25
487.828	16263.25
488.609	16000.25
489.39	15610.25
490.17	15020.25
490.951	14391.25
491.731	13586.25
492.511	12915.25
493.292	12455.25
494.072	12178.25
494.852	11946.25
495.632	11709.25
496.412	11445.25
497.192	11223.25
497.971	10974.25
498.751	10844.25
499.531	10727.25
500.31	10631.25
501.09	10522.25
501.869	10412.25
502.648	10369.25
503.428	10301.25
504.207	10243.25
504.986	10192.25
505.765	10187.25
506.544	10187.25
507.323	10163.25
508.102	10188.25
508.881	10219.25
509.659	10241.25
510.438	10228.25
511.216	10264.25
511.995	10321.25
512.773	10344.25
513.552	10388.25
514.33	10380.25
515.108	10442.25
515.886	10448.25
516.664	10444.25
517.442	10457.25
518.22	10493.25
518.998	10478.25
519.775	10492.25
520.553	10557.25
521.331	10584.25
522.108	10631.25
522.886	10687.25
523.663	10756.25
524.44	10824.25
525.218	10960.25
525.995	11091.25
526.772	11233.25
527.549	11466.25
528.326	11781.25
529.103	12248.25
529.879	12888.25
530.656	13714.25
531.433	14515.25
532.209	15241.25
532.986	15921.25
533.762	16574.25
534.539	17289.25
535.315	18285.25
536.091	19500.25
536.867	20797.25
537.643	22054.25
538.419	23208.25
539.195	24178.25
539.971	25002.25
540.747	26098.25
541.522	27779.25
542.298	31479.25
543.074	40588.25
543.849	55205.25
544.624	63140.25
545.4	63140.25
546.175	63140.25
546.95	63140.25
547.725	63140.25
548.5	63140.25
549.275	63140.25
550.05	63140.25
550.825	63140.25
551.6	63140.25
552.374	59530.25
553.149	52801.25
553.923	47944.25
554.698	43839.25
555.472	40325.25
556.247	37518.25
557.021	35052.25
557.795	33177.25
558.569	31641.25
559.343	30558.25
560.117	29546.25
560.891	28638.25
561.665	27730.25
562.438	26756.25
563.212	25659.25
563.985	24684.25
564.759	23828.25
565.532	23339.25
566.306	23262.25
567.079	23678.25
567.852	24898.25
568.625	26651.25
569.398	29525.25
570.171	33348.25
570.944	38252.25
571.717	43950.25
572.49	50050.25
573.262	56000.25
574.035	60985.25
574.808	63140.25
575.58	63140.25
576.352	63140.25
577.125	63140.25
577.897	63006.25
578.669	59426.25
579.441	55640.25
580.213	52101.25
580.985	48777.25
581.757	45538.25
582.529	42430.25
583.301	39496.25
584.072	36887.25
584.844	34621.25
585.615	32338.25
586.387	30566.25
587.158	29076.25
587.929	27708.25
588.701	26436.25
589.472	25317.25
590.243	24327.25
591.014	23392.25
591.785	22751.25
592.556	22209.25
593.326	21693.25
594.097	21099.25
594.868	20388.25
595.638	19614.25
596.409	18851.25
597.179	18174.25
597.949	17638.25
598.72	17137.25
599.49	16679.25
600.26	16249.25
601.03	15845.25
601.8	15562.25
602.57	15235.25
603.34	14867.25
604.109	14682.25
604.879	14407.25
605.649	14243.25
606.418	14047.25
607.188	13875.25
607.957	13707.25
608.726	13552.25
609.496	13437.25
610.265	13237.25
611.034	13074.25
611.803	12887.25
612.572	12715.25
613.341	12598.25
614.109	12472.25
614.878	12316.25
615.647	12279.25
616.415	12128.25
617.184	12064.25
617.952	11929.25
618.721	11905.25
619.489	11772.25
620.257	11758.25
621.025	11683.25
621.793	11606.25
622.561	11570.25
623.329	11552.25
624.097	11532.25
624.865	11545.25
625.632	11552.25
626.4	11477.25
627.168	11405.25
627.935	11364.25
628.702	11336.25
629.47	11282.25
630.237	11194.25
631.004	11159.25
631.771	11116.25
632.538	11064.25
633.305	11072.25
634.072	11001.25
634.839	10996.25
635.606	10991.25
636.372	10939.25
637.139	10908.25
637.905	10912.25
638.672	10810.25
639.438	10786.25
640.204	10723.25
640.971	10713.25
641.737	10661.25
642.503	10664.25
643.269	10586.25
644.035	10561.25
644.8	10538.25
645.566	10563.25
646.332	10497.25
647.097	10454.25
647.863	10443.25
648.629	10383.25
649.394	10337.25
650.159	10355.25
650.924	10285.25
651.69	10229.25
652.455	10235.25
653.22	10246.25
653.985	10192.25
654.75	10196.25
655.514	10155.25
656.279	10186.25
657.044	10166.25
657.808	10168.25
658.573	10138.25
659.337	10081.25
660.102	10105.25
660.866	10123.25
661.63	10055.25
662.394	10060.25
663.158	10035.25
663.922	10019.25
664.686	10024.25
665.45	10015.25
666.214	9994.25
666.978	10008.25
667.741	10009.25
668.505	10035.25
669.268	10020.25
670.032	9989.25
670.795	9961.25
671.558	9896.25
672.321	9895.25
673.084	9880.25
673.847	9848.25
674.61	9797.25
675.373	9784.25
676.136	9791.25
676.899	9808.25
677.662	9789.25
678.424	9764.25
679.187	9768.25
679.949	9760.25
680.711	9720.25
681.474	9712.25
682.236	9680.25
682.998	9702.25
683.76	9691.25
684.522	9674.25
685.284	9725.25
686.046	9675.25
686.808	9686.25
687.569	9716.25
688.331	9736.25
689.092	9747.25
689.854	9758.25
690.615	9818.25
691.377	9835.25
692.138	9860.25
692.899	10012.25
693.66	9946.25
694.421	9982.25
695.182	9966.25
695.943	9872.25
696.704	9825.25
697.465	9781.25
698.225	9703.25
698.986	9641.25
699.746	9613.25
700.507	9593.25
701.267	9477.25
702.027	9467.25
702.788	9428.25
703.548	9345.25
704.308	9382.25
705.068	9331.25
705.828	9268.25
706.588	9246.25
707.347	9154.25
708.107	9157.25
708.867	9184.25
709.626	9178.25
710.386	9116.25
711.145	9111.25
711.904	9013.25
712.664	8924.25
713.423	8877.25
714.182	8726.25
714.941	8674.25
715.7	8597.25
716.459	8578.25
717.218	8469.25
717.976	8392.25
718.735	8347.25
719.494	8294.25
720.252	8258.25
721.011	8160.25
721.769	8132.25
722.527	8101.25
723.285	8047.25
724.044	7978.25
724.802	7930.25
725.56	7865.25
726.317	7742.25
727.075	7692.25
727.833	7537.25
728.591	7375.25
729.348	7247.25
730.106	7112.25
730.863	6957.25
731.621	6840.25
732.378	6688.25
733.135	6564.25
733.893	6404.25
734.65	6270.25
735.407	6190.25
736.164	6078.25
736.92	5981.25
737.677	5820.25
738.434	5759.25
739.191	5631.25
739.947	5541.25
740.704	5466.25
741.46	5392.25
742.216	5341.25
742.973	5251.25
743.729	5204.25
744.485	5114.25
745.241	5035.25
745.997	4985.25
746.753	4921.25
747.509	4850.25
748.265	4795.25
749.02	4745.25
749.776	4691.25
750.531	4636.25
751.287	4542.25
752.042	4482.25
752.798	4408.25
753.553	4344.25
754.308	4302.25
755.063	4224.25
755.818	4188.25
756.573	4109.25
757.328	4063.25
758.083	4019.25
758.837	3951.25
759.592	3912.25
760.347	3824.25
761.101	3755.25
761.855	3727.25
762.61	3678.25
763.364	3592.25
764.118	3512.25
764.872	3463.25
765.626	3397.25
766.38	3318.25
767.134	3293.25
767.888	3221.25
768.642	3138.25
769.396	3088.25
770.149	3044.25
770.903	2951.25
771.656	2910.25
772.409	2876.25
773.163	2826.25
773.916	2790.25
774.669	2759.25
775.422	2711.25
776.175	2640.25
776.928	2597.25
777.681	2564.25
778.434	2495.25
779.186	2471.25
779.939	2411.25
780.692	2353.25
781.444	2336.25
782.197	2283.25
782.949	2236.25
783.701	2179.25
784.453	2159.25
785.205	2101.25
785.957	2082.25
786.709	2031.25
787.461	2002.25
788.213	1978.25
788.965	1963.25
789.716	1915.25
790.468	1884.25
791.22	1827.25
791.971	1845.25
792.722	1792.25
793.474	1760.25
794.225	1704.25
794.976	1692.25
795.727	1658.25
796.478	1650.25
797.229	1617.25
797.98	1565.25
798.731	1544.25
799.481	1505.25
800.232	1493.25
800.982	1464.25
801.733	1419.25
802.483	1403.25
803.233	1363.25
803.984	1358.25
804.734	1331.25
805.484	1303.25
806.234	1266.25
806.984	1253.25
807.734	1223.25
808.484	1192.25
809.233	1147.25
809.983	1140.25
810.732	1117.25
811.482	1088.25
812.231	1056.25
812.981	1020.25
813.73	995.25
814.479	976.25
815.228	970.25
815.977	935.25
816.726	921.25
817.475	891.25
818.224	883.25
818.973	855.25
819.721	823.25
820.47	822.25
821.219	804.25
821.967	787.25
822.715	772.25
823.464	752.25
824.212	741.25
824.96	747.25
825.708	738.25
826.456	715.25
827.204	712.25
827.952	704.25
828.7	698.25
829.447	703.25
830.195	697.25
830.942	689.25
831.69	673.25
832.437	677.25
833.185	654.25
833.932	655.25
834.679	670.25
835.426	661.25
836.173	653.25
836.92	642.25
837.667	630.25
838.414	615.25
839.16	611.25
839.907	613.25
840.654	609.25
841.4	597.25
842.147	591.25
842.893	575.25
843.639	562.25
844.385	554.25
845.131	550.25
845.877	532.25
846.623	524.25
847.369	506.25
848.115	493.25
848.861	482.25
849.607	468.25
850.352	467.25
851.098	455.25
851.843	439.25
852.588	433.25
853.334	415.25
854.079	414.25
854.824	399.25
855.569	401.25
856.314	407.25
857.059	384.25
857.804	377.25
858.549	372.25
859.293	362.25
860.038	361.25
860.783	363.25
861.527	363.25
862.271	351.25
863.016	346.25
863.76	338.25
864.504	340.25
865.248	328.25
865.992	340.25
866.736	332.25
867.48	333.25
868.224	335.25
868.968	329.25
869.711	322.25
870.455	319.25
871.198	324.25
871.942	322.25
872.685	319.25
873.428	320.25
874.171	321.25
874.915	308.25
875.658	308.25
876.401	308.25
877.143	304.25
877.886	304.25
878.629	304.25
879.372	305.25
880.114	294.25
880.857	297.25
881.599	285.25
882.342	293.25
883.084	295.25
883.826	290.25
884.568	288.25
885.31	290.25
886.052	290.25
886.794	288.25
887.536	288.25
888.278	283.25
889.019	285.25
889.761	289.25
890.503	283.25
891.244	287.25
891.985	282.25
892.727	288.25
893.468	280.25
894.209	285.25
894.95	294.25
895.691	287.25
896.432	286.25
897.173	285.25
897.914	280.25
898.654	276.25
899.395	281.25
900.136	281.25
900.876	281.25
901.617	278.25
902.357	284.25
903.097	268.25
903.837	279.25
904.577	276.25
905.317	272.25
906.057	264.25
906.797	264.25
907.537	268.25
908.277	257.25
909.016	260.25
909.756	250.25
910.496	252.25
911.235	245.25
911.974	242.25
912.714	232.25
913.453	238.25
914.192	235.25
914.931	224.25
915.67	224.25
916.409	217.25
917.148	216.25
917.886	213.25
918.625	209.25
919.364	207.25
920.102	194.25
920.841	204.25
921.579	195.25
922.317	188.25
923.055	177.25
923.794	172.25
924.532	168.25
925.27	164.25
926.008	162.25
926.745	159.25
927.483	153.25
928.221	147.25
928.958	139.25
929.696	136.25
930.433	132.25
931.171	126.25
931.908	116.25
932.645	112.25
933.383	115.25
934.12	104.25
934.857	101.25
935.594	94.25
936.33	87.25
937.067	80.25
937.804	78.25
938.541	77.25
939.277	67.25
940.014	69.25
940.75	67.25
941.486	65.25
942.223	62.25
942.959	62.25
943.695	59.25
944.431	56.25
945.167	53.25
945.903	56.25
946.638	52.25
947.374	58.25
948.11	51.25
948.845	49.25
949.581	47.25
950.316	47.25
951.052	49.25
951.787	46.25
952.522	46.25
953.257	43.25
953.992	40.25
954.727	40.25
955.462	38.25
956.197	41.25
956.932	38.25
957.666	40.25
958.401	38.25
959.135	38.25
959.87	38.25
960.604	39.25
961.339	39.25
962.073	36.25
962.807	39.25
963.541	37.25
964.275	39.25
965.009	39.25
965.743	38.25
966.476	40.25
967.21	39.25
967.944	36.25
968.677	40.25
969.411	38.25
970.144	42.25
970.877	39.25
971.611	39.25
972.344	41.25
973.077	39.25
973.81	37.25
974.543	37.25
975.276	41.25
976.008	39.25
976.741	46.25
977.474	40.25
978.206	43.25
978.939	39.25
979.671	41.25
980.403	41.25
981.136	44.25
981.868	41.25
982.6	42.25
983.332	43.25
984.064	43.25
984.796	41.25
985.527	46.25
986.259	43.25
986.991	3.25
987.722	0.25
988.454	-0.75
989.185	-1.75
989.917	31.25
990.648	35.25
991.379	31.25
992.11	36.25
992.841	30.25
993.572	32.25
994.303	45.25
995.034	44.25
995.764	45.25
996.495	46.25
997.226	47.25
997.956	49.25
998.687	-1.75
999.417	2.25
1000.147	-0.75
1000.877	-0.75
