Data from QEPB00791_17-10-42-553.txt Node
Date: Mon Jan 20 17:10:42 MST 2020
User: ecestudent
Spectrometer: QEPB0079
Trigger mode: 0
Integration Time (sec): 8.000000E-3
Scans to average: 1
Electric dark correction enabled: true
Nonlinearity correction enabled: false
Boxcar width: 0
XAxis mode: Wavelengths
Number of Pixels in Spectrum: 1044
>>>>>Begin Spectral Data<<<<<
198.864	32.88
199.671	33.88
200.477	36.88
201.284	31.88
202.091	31.88
202.897	32.88
203.704	30.88
204.51	30.88
205.317	33.88
206.123	34.88
206.929	33.88
207.736	32.88
208.542	34.88
209.348	30.88
210.154	36.88
210.96	35.88
211.765	34.88
212.571	34.88
213.377	31.88
214.182	36.88
214.988	34.88
215.793	37.88
216.599	37.88
217.404	34.88
218.209	38.88
219.015	34.88
219.82	36.88
220.625	32.88
221.43	36.88
222.235	39.88
223.039	36.88
223.844	36.88
224.649	34.88
225.453	34.88
226.258	38.88
227.062	36.88
227.867	41.88
228.671	37.88
229.475	39.88
230.28	38.88
231.084	39.88
231.888	39.88
232.692	37.88
233.496	44.88
234.299	36.88
235.103	40.88
235.907	37.88
236.71	41.88
237.514	38.88
238.317	40.88
239.121	43.88
239.924	43.88
240.727	42.88
241.531	47.88
242.334	43.88
243.137	40.88
243.94	44.88
244.743	42.88
245.545	44.88
246.348	47.88
247.151	47.88
247.954	47.88
248.756	46.88
249.559	49.88
250.361	50.88
251.163	50.88
251.965	51.88
252.768	49.88
253.57	48.88
254.372	53.88
255.174	51.88
255.976	53.88
256.777	49.88
257.579	54.88
258.381	55.88
259.183	53.88
259.984	57.88
260.786	54.88
261.587	55.88
262.388	57.88
263.189	54.88
263.991	60.88
264.792	58.88
265.593	61.88
266.394	62.88
267.195	61.88
267.995	60.88
268.796	62.88
269.597	69.88
270.397	66.88
271.198	67.88
271.998	66.88
272.799	67.88
273.599	69.88
274.399	72.88
275.2	75.88
276	73.88
276.8	75.88
277.6	75.88
278.4	79.88
279.199	83.88
279.999	80.88
280.799	85.88
281.598	86.88
282.398	86.88
283.197	91.88
283.997	95.88
284.796	97.88
285.595	99.88
286.395	99.88
287.194	105.88
287.993	107.88
288.792	111.88
289.59	116.88
290.389	122.88
291.188	123.88
291.987	127.88
292.785	130.88
293.584	146.88
294.382	150.88
295.181	150.88
295.979	164.88
296.777	171.88
297.575	182.88
298.373	204.88
299.171	205.88
299.969	225.88
300.767	235.88
301.565	252.88
302.363	271.88
303.16	288.88
303.958	304.88
304.756	311.88
305.553	330.88
306.35	346.88
307.148	373.88
307.945	395.88
308.742	430.88
309.539	471.88
310.336	510.88
311.133	549.88
311.93	580.88
312.727	629.88
313.524	690.88
314.32	756.88
315.117	812.88
315.913	835.88
316.71	856.88
317.506	861.88
318.302	884.88
319.099	893.88
319.895	890.88
320.691	914.88
321.487	928.88
322.283	963.88
323.079	973.88
323.874	1013.88
324.67	1025.88
325.466	1058.88
326.261	1072.88
327.057	1088.88
327.852	1146.88
328.648	1213.88
329.443	1285.88
330.238	1410.88
331.033	1530.88
331.828	1717.88
332.623	1927.88
333.418	2113.88
334.213	2218.88
335.008	2244.88
335.803	2185.88
336.597	2131.88
337.392	2126.88
338.186	2148.88
338.981	2230.88
339.775	2269.88
340.57	2356.88
341.364	2447.88
342.158	2570.88
342.952	2677.88
343.746	2788.88
344.54	2872.88
345.334	2960.88
346.127	3031.88
346.921	3087.88
347.715	3135.88
348.508	3132.88
349.302	3118.88
350.095	3168.88
350.889	3191.88
351.682	3281.88
352.475	3352.88
353.268	3452.88
354.061	3561.88
354.854	3667.88
355.647	3741.88
356.44	3920.88
357.233	4109.88
358.025	4375.88
358.818	4713.88
359.611	5312.88
360.403	6201.88
361.195	7646.88
361.988	9416.88
362.78	10944.88
363.572	11876.88
364.364	12561.88
365.156	13158.88
365.948	13945.88
366.74	14448.88
367.532	14335.88
368.324	13821.88
369.116	13125.88
369.907	12315.88
370.699	11591.88
371.49	10960.88
372.282	10405.88
373.073	9926.88
373.864	9563.88
374.655	9244.88
375.446	8971.88
376.237	8749.88
377.028	8668.88
377.819	8532.88
378.61	8476.88
379.401	8443.88
380.192	8416.88
380.982	8417.88
381.773	8509.88
382.563	8599.88
383.354	8665.88
384.144	8814.88
384.934	8942.88
385.724	9012.88
386.514	9151.88
387.304	9191.88
388.094	9215.88
388.884	9277.88
389.674	9281.88
390.464	9350.88
391.253	9436.88
392.043	9583.88
392.832	9753.88
393.622	9902.88
394.411	10056.88
395.201	10243.88
395.99	10465.88
396.779	10638.88
397.568	10878.88
398.357	11182.88
399.146	11571.88
399.935	12131.88
400.724	13207.88
401.512	15401.88
402.301	19432.88
403.09	24791.88
403.878	29914.88
404.667	32921.88
405.455	33037.88
406.243	31087.88
407.031	28168.88
407.82	25287.88
408.608	23018.88
409.396	21377.88
410.184	20463.88
410.971	19870.88
411.759	19379.88
412.547	18741.88
413.334	17949.88
414.122	17286.88
414.91	16823.88
415.697	16532.88
416.484	16356.88
417.272	16410.88
418.059	16539.88
418.846	16797.88
419.633	17115.88
420.42	17406.88
421.207	17859.88
421.994	18295.88
422.78	18694.88
423.567	19113.88
424.354	19618.88
425.14	20077.88
425.927	20536.88
426.713	21217.88
427.499	22241.88
428.286	23500.88
429.072	24785.88
429.858	25781.88
430.644	26347.88
431.43	26924.88
432.216	28022.88
433.002	30783.88
433.787	34637.88
434.573	39254.88
435.359	44184.88
436.144	48113.88
436.93	50235.88
437.715	49555.88
438.5	46518.88
439.286	42090.88
440.071	37918.88
440.856	34238.88
441.641	31290.88
442.426	28917.88
443.211	27121.88
443.996	25810.88
444.78	24844.88
445.565	24044.88
446.35	23233.88
447.134	22521.88
447.919	21615.88
448.703	20865.88
449.487	20053.88
450.271	19209.88
451.056	18517.88
451.84	17844.88
452.624	17419.88
453.408	17107.88
454.191	16898.88
454.975	16852.88
455.759	16807.88
456.543	16719.88
457.326	16372.88
458.11	15935.88
458.893	15405.88
459.676	14923.88
460.46	14459.88
461.243	14157.88
462.026	13933.88
462.809	13875.88
463.592	13791.88
464.375	13805.88
465.158	13840.88
465.941	13976.88
466.723	14124.88
467.506	14343.88
468.288	14604.88
469.071	14843.88
469.853	15028.88
470.636	15312.88
471.418	15567.88
472.2	15774.88
472.982	15762.88
473.764	15562.88
474.546	15342.88
475.328	15081.88
476.11	14865.88
476.892	14581.88
477.673	14535.88
478.455	14463.88
479.236	14568.88
480.018	14690.88
480.799	15035.88
481.581	15377.88
482.362	15733.88
483.143	16275.88
483.924	16824.88
484.705	17269.88
485.486	17411.88
486.267	17351.88
487.048	17119.88
487.828	16849.88
488.609	16450.88
489.39	16048.88
490.17	15510.88
490.951	14813.88
491.731	14073.88
492.511	13311.88
493.292	12857.88
494.072	12508.88
494.852	12318.88
495.632	12027.88
496.412	11854.88
497.192	11535.88
497.971	11343.88
498.751	11178.88
499.531	11054.88
500.31	10947.88
501.09	10849.88
501.869	10715.88
502.648	10663.88
503.428	10609.88
504.207	10503.88
504.986	10476.88
505.765	10472.88
506.544	10472.88
507.323	10528.88
508.102	10507.88
508.881	10527.88
509.659	10535.88
510.438	10551.88
511.216	10596.88
511.995	10648.88
512.773	10662.88
513.552	10667.88
514.33	10732.88
515.108	10761.88
515.886	10713.88
516.664	10746.88
517.442	10802.88
518.22	10791.88
518.998	10788.88
519.775	10797.88
520.553	10870.88
521.331	10903.88
522.108	10982.88
522.886	11051.88
523.663	11069.88
524.44	11154.88
525.218	11223.88
525.995	11387.88
526.772	11556.88
527.549	11743.88
528.326	12096.88
529.103	12660.88
529.879	13248.88
530.656	14078.88
531.433	14895.88
532.209	15741.88
532.986	16388.88
533.762	17055.88
534.539	17809.88
535.315	18818.88
536.091	20057.88
536.867	21408.88
537.643	22788.88
538.419	23978.88
539.195	24910.88
539.971	25821.88
540.747	26892.88
541.522	28639.88
542.298	32428.88
543.074	41696.88
543.849	56558.88
544.624	63139.88
545.4	63139.88
546.175	63139.88
546.95	63139.88
547.725	63139.88
548.5	63139.88
549.275	63139.88
550.05	63139.88
550.825	63139.88
551.6	63139.88
552.374	61627.88
553.149	54341.88
553.923	49436.88
554.698	45057.88
555.472	41657.88
556.247	38610.88
557.021	36090.88
557.795	34002.88
558.569	32566.88
559.343	31402.88
560.117	30462.88
560.891	29546.88
561.665	28606.88
562.438	27512.88
563.212	26367.88
563.985	25404.88
564.759	24517.88
565.532	24080.88
566.306	23944.88
567.079	24445.88
567.852	25606.88
568.625	27538.88
569.398	30465.88
570.171	34553.88
570.944	39546.88
571.717	45442.88
572.49	51606.88
573.262	57674.88
574.035	62687.88
574.808	63139.88
575.58	63139.88
576.352	63139.88
577.125	63139.88
577.897	63139.88
578.669	61512.88
579.441	57403.88
580.213	53713.88
580.985	50094.88
581.757	46929.88
582.529	43585.88
583.301	40721.88
584.072	38063.88
584.844	35683.88
585.615	33597.88
586.387	31725.88
587.158	30008.88
587.929	28625.88
588.701	27273.88
589.472	26125.88
590.243	24973.88
591.014	24166.88
591.785	23451.88
592.556	22869.88
593.326	22348.88
594.097	21817.88
594.868	21076.88
595.638	20329.88
596.409	19543.88
597.179	18811.88
597.949	18198.88
598.72	17639.88
599.49	17166.88
600.26	16697.88
601.03	16379.88
601.8	15980.88
602.57	15723.88
603.34	15381.88
604.109	15135.88
604.879	14894.88
605.649	14684.88
606.418	14526.88
607.188	14300.88
607.957	14102.88
608.726	13993.88
609.496	13798.88
610.265	13670.88
611.034	13469.88
611.803	13270.88
612.572	13103.88
613.341	13004.88
614.109	12847.88
614.878	12747.88
615.647	12627.88
616.415	12518.88
617.184	12421.88
617.952	12314.88
618.721	12227.88
619.489	12153.88
620.257	12093.88
621.025	12057.88
621.793	11994.88
622.561	11962.88
623.329	11987.88
624.097	11892.88
624.865	11897.88
625.632	11817.88
626.4	11759.88
627.168	11692.88
627.935	11663.88
628.702	11650.88
629.47	11611.88
630.237	11540.88
631.004	11525.88
631.771	11483.88
632.538	11443.88
633.305	11436.88
634.072	11324.88
634.839	11260.88
635.606	11285.88
636.372	11263.88
637.139	11212.88
637.905	11184.88
638.672	11157.88
639.438	11076.88
640.204	11060.88
640.971	11052.88
641.737	11024.88
642.503	10950.88
643.269	10916.88
644.035	10897.88
644.8	10907.88
645.566	10863.88
646.332	10808.88
647.097	10786.88
647.863	10738.88
648.629	10702.88
649.394	10652.88
650.159	10654.88
650.924	10598.88
651.69	10552.88
652.455	10603.88
653.22	10557.88
653.985	10555.88
654.75	10528.88
655.514	10478.88
656.279	10511.88
657.044	10456.88
657.808	10459.88
658.573	10407.88
659.337	10442.88
660.102	10421.88
660.866	10437.88
661.63	10431.88
662.394	10386.88
663.158	10370.88
663.922	10369.88
664.686	10327.88
665.45	10316.88
666.214	10340.88
666.978	10301.88
667.741	10323.88
668.505	10295.88
669.268	10287.88
670.032	10282.88
670.795	10264.88
671.558	10221.88
672.321	10200.88
673.084	10161.88
673.847	10161.88
674.61	10110.88
675.373	10105.88
676.136	10095.88
676.899	10130.88
677.662	10131.88
678.424	10049.88
679.187	10050.88
679.949	10020.88
680.711	10003.88
681.474	9982.88
682.236	9977.88
682.998	9957.88
683.76	10021.88
684.522	9989.88
685.284	10027.88
686.046	9966.88
686.808	10005.88
687.569	9997.88
688.331	10050.88
689.092	10020.88
689.854	9996.88
690.615	10060.88
691.377	10127.88
692.138	10223.88
692.899	10228.88
693.66	10286.88
694.421	10267.88
695.182	10199.88
695.943	10179.88
696.704	10091.88
697.465	10038.88
698.225	10031.88
698.986	9961.88
699.746	9924.88
700.507	9850.88
701.267	9803.88
702.027	9785.88
702.788	9702.88
703.548	9677.88
704.308	9634.88
705.068	9563.88
705.828	9539.88
706.588	9527.88
707.347	9446.88
708.107	9423.88
708.867	9453.88
709.626	9417.88
710.386	9399.88
711.145	9308.88
711.904	9295.88
712.664	9161.88
713.423	9131.88
714.182	9039.88
714.941	8968.88
715.7	8859.88
716.459	8812.88
717.218	8708.88
717.976	8667.88
718.735	8611.88
719.494	8534.88
720.252	8475.88
721.011	8393.88
721.769	8348.88
722.527	8290.88
723.285	8224.88
724.044	8171.88
724.802	8156.88
725.56	8089.88
726.317	7998.88
727.075	7915.88
727.833	7801.88
728.591	7637.88
729.348	7510.88
730.106	7313.88
730.863	7171.88
731.621	7063.88
732.378	6884.88
733.135	6721.88
733.893	6558.88
734.65	6468.88
735.407	6373.88
736.164	6206.88
736.92	6116.88
737.677	6016.88
738.434	5896.88
739.191	5812.88
739.947	5719.88
740.704	5657.88
741.46	5576.88
742.216	5511.88
742.973	5445.88
743.729	5363.88
744.485	5261.88
745.241	5195.88
745.997	5140.88
746.753	5056.88
747.509	4962.88
748.265	4936.88
749.02	4864.88
749.776	4822.88
750.531	4759.88
751.287	4691.88
752.042	4650.88
752.798	4559.88
753.553	4491.88
754.308	4448.88
755.063	4369.88
755.818	4316.88
756.573	4245.88
757.328	4177.88
758.083	4119.88
758.837	4073.88
759.592	4005.88
760.347	3973.88
761.101	3869.88
761.855	3832.88
762.61	3765.88
763.364	3709.88
764.118	3664.88
764.872	3574.88
765.626	3508.88
766.38	3454.88
767.134	3374.88
767.888	3327.88
768.642	3258.88
769.396	3186.88
770.149	3121.88
770.903	3082.88
771.656	3030.88
772.409	2971.88
773.163	2877.88
773.916	2874.88
774.669	2835.88
775.422	2788.88
776.175	2727.88
776.928	2676.88
777.681	2617.88
778.434	2584.88
779.186	2519.88
779.939	2473.88
780.692	2421.88
781.444	2375.88
782.197	2338.88
782.949	2314.88
783.701	2259.88
784.453	2211.88
785.205	2170.88
785.957	2140.88
786.709	2116.88
787.461	2065.88
788.213	2024.88
788.965	2006.88
789.716	1964.88
790.468	1934.88
791.22	1894.88
791.971	1873.88
792.722	1832.88
793.474	1805.88
794.225	1772.88
794.976	1740.88
795.727	1711.88
796.478	1702.88
797.229	1679.88
797.98	1641.88
798.731	1586.88
799.481	1543.88
800.232	1524.88
800.982	1488.88
801.733	1483.88
802.483	1450.88
803.233	1405.88
803.984	1379.88
804.734	1354.88
805.484	1347.88
806.234	1309.88
806.984	1285.88
807.734	1251.88
808.484	1216.88
809.233	1184.88
809.983	1159.88
810.732	1127.88
811.482	1101.88
812.231	1095.88
812.981	1073.88
813.73	1035.88
814.479	997.88
815.228	985.88
815.977	954.88
816.726	945.88
817.475	906.88
818.224	887.88
818.973	864.88
819.721	853.88
820.47	851.88
821.219	835.88
821.967	807.88
822.715	798.88
823.464	777.88
824.212	762.88
824.96	760.88
825.708	761.88
826.456	749.88
827.204	737.88
827.952	720.88
828.7	716.88
829.447	710.88
830.195	726.88
830.942	716.88
831.69	700.88
832.437	687.88
833.185	688.88
833.932	682.88
834.679	682.88
835.426	670.88
836.173	683.88
836.92	669.88
837.667	657.88
838.414	637.88
839.16	640.88
839.907	643.88
840.654	620.88
841.4	615.88
842.147	598.88
842.893	580.88
843.639	574.88
844.385	580.88
845.131	556.88
845.877	549.88
846.623	539.88
847.369	522.88
848.115	511.88
848.861	499.88
849.607	488.88
850.352	484.88
851.098	463.88
851.843	455.88
852.588	445.88
853.334	430.88
854.079	421.88
854.824	413.88
855.569	407.88
856.314	407.88
857.059	394.88
857.804	395.88
858.549	384.88
859.293	369.88
860.038	373.88
860.783	368.88
861.527	365.88
862.271	365.88
863.016	352.88
863.76	348.88
864.504	346.88
865.248	346.88
865.992	347.88
866.736	341.88
867.48	342.88
868.224	339.88
868.968	335.88
869.711	330.88
870.455	331.88
871.198	334.88
871.942	335.88
872.685	335.88
873.428	331.88
874.171	323.88
874.915	317.88
875.658	318.88
876.401	306.88
877.143	312.88
877.886	310.88
878.629	307.88
879.372	300.88
880.114	303.88
880.857	292.88
881.599	297.88
882.342	296.88
883.084	300.88
883.826	299.88
884.568	294.88
885.31	295.88
886.052	296.88
886.794	292.88
887.536	293.88
888.278	297.88
889.019	296.88
889.761	302.88
890.503	300.88
891.244	295.88
891.985	299.88
892.727	301.88
893.468	290.88
894.209	292.88
894.95	298.88
895.691	284.88
896.432	300.88
897.173	299.88
897.914	296.88
898.654	289.88
899.395	290.88
900.136	289.88
900.876	292.88
901.617	293.88
902.357	283.88
903.097	284.88
903.837	285.88
904.577	278.88
905.317	278.88
906.057	277.88
906.797	277.88
907.537	270.88
908.277	271.88
909.016	266.88
909.756	268.88
910.496	260.88
911.235	251.88
911.974	253.88
912.714	245.88
913.453	246.88
914.192	239.88
914.931	233.88
915.67	231.88
916.409	224.88
917.148	217.88
917.886	212.88
918.625	214.88
919.364	212.88
920.102	204.88
920.841	200.88
921.579	200.88
922.317	186.88
923.055	185.88
923.794	179.88
924.532	173.88
925.27	171.88
926.008	172.88
926.745	161.88
927.483	159.88
928.221	150.88
928.958	147.88
929.696	142.88
930.433	135.88
931.171	128.88
931.908	123.88
932.645	119.88
933.383	117.88
934.12	105.88
934.857	101.88
935.594	93.88
936.33	89.88
937.067	89.88
937.804	79.88
938.541	79.88
939.277	72.88
940.014	67.88
940.75	67.88
941.486	65.88
942.223	65.88
942.959	60.88
943.695	61.88
944.431	56.88
945.167	55.88
945.903	57.88
946.638	52.88
947.374	51.88
948.11	53.88
948.845	50.88
949.581	47.88
950.316	47.88
951.052	50.88
951.787	48.88
952.522	46.88
953.257	42.88
953.992	42.88
954.727	40.88
955.462	42.88
956.197	40.88
956.932	38.88
957.666	41.88
958.401	39.88
959.135	40.88
959.87	35.88
960.604	41.88
961.339	41.88
962.073	37.88
962.807	37.88
963.541	37.88
964.275	39.88
965.009	44.88
965.743	39.88
966.476	38.88
967.21	38.88
967.944	40.88
968.677	38.88
969.411	41.88
970.144	42.88
970.877	38.88
971.611	41.88
972.344	38.88
973.077	44.88
973.81	43.88
974.543	41.88
975.276	42.88
976.008	41.88
976.741	45.88
977.474	38.88
978.206	42.88
978.939	43.88
979.671	40.88
980.403	42.88
981.136	39.88
981.868	44.88
982.6	42.88
983.332	40.88
984.064	41.88
984.796	42.88
985.527	43.88
986.259	43.88
986.991	1.88
987.722	0.88
988.454	-2.12
989.185	1.88
989.917	33.88
990.648	29.88
991.379	31.88
992.11	30.88
992.841	33.88
993.572	30.88
994.303	45.88
995.034	42.88
995.764	47.88
996.495	43.88
997.226	47.88
997.956	46.88
998.687	-0.12
999.417	0.88
1000.147	-1.12
1000.877	-2.12
