Data from QEPB00791_17-08-04-121.txt Node
Date: Mon Jan 20 17:08:04 MST 2020
User: ecestudent
Spectrometer: QEPB0079
Trigger mode: 0
Integration Time (sec): 8.000000E-3
Scans to average: 1
Electric dark correction enabled: true
Nonlinearity correction enabled: false
Boxcar width: 0
XAxis mode: Wavelengths
Number of Pixels in Spectrum: 1044
>>>>>Begin Spectral Data<<<<<
198.864	31.25
199.671	31.25
200.477	30.25
201.284	32.25
202.091	30.25
202.897	34.25
203.704	30.25
204.51	32.25
205.317	30.25
206.123	28.25
206.929	33.25
207.736	31.25
208.542	34.25
209.348	33.25
210.154	33.25
210.96	33.25
211.765	29.25
212.571	35.25
213.377	35.25
214.182	33.25
214.988	33.25
215.793	31.25
216.599	37.25
217.404	35.25
218.209	35.25
219.015	37.25
219.82	36.25
220.625	36.25
221.43	33.25
222.235	35.25
223.039	35.25
223.844	38.25
224.649	35.25
225.453	38.25
226.258	41.25
227.062	34.25
227.867	36.25
228.671	37.25
229.475	37.25
230.28	38.25
231.084	39.25
231.888	39.25
232.692	37.25
233.496	39.25
234.299	37.25
235.103	41.25
235.907	37.25
236.71	39.25
237.514	41.25
238.317	40.25
239.121	41.25
239.924	44.25
240.727	43.25
241.531	41.25
242.334	40.25
243.137	44.25
243.94	43.25
244.743	46.25
245.545	43.25
246.348	45.25
247.151	45.25
247.954	47.25
248.756	50.25
249.559	47.25
250.361	53.25
251.163	51.25
251.965	45.25
252.768	51.25
253.57	47.25
254.372	51.25
255.174	49.25
255.976	52.25
256.777	51.25
257.579	54.25
258.381	51.25
259.183	56.25
259.984	53.25
260.786	56.25
261.587	57.25
262.388	58.25
263.189	55.25
263.991	59.25
264.792	56.25
265.593	59.25
266.394	60.25
267.195	61.25
267.995	63.25
268.796	64.25
269.597	66.25
270.397	61.25
271.198	62.25
271.998	66.25
272.799	67.25
273.599	70.25
274.399	70.25
275.2	70.25
276	73.25
276.8	76.25
277.6	74.25
278.4	77.25
279.199	83.25
279.999	80.25
280.799	83.25
281.598	85.25
282.398	86.25
283.197	91.25
283.997	94.25
284.796	96.25
285.595	95.25
286.395	99.25
287.194	101.25
287.993	107.25
288.792	109.25
289.59	112.25
290.389	117.25
291.188	119.25
291.987	126.25
292.785	129.25
293.584	139.25
294.382	151.25
295.181	154.25
295.979	163.25
296.777	168.25
297.575	183.25
298.373	197.25
299.171	200.25
299.969	219.25
300.767	235.25
301.565	249.25
302.363	265.25
303.16	277.25
303.958	293.25
304.756	306.25
305.553	320.25
306.35	346.25
307.148	361.25
307.945	384.25
308.742	430.25
309.539	463.25
310.336	498.25
311.133	519.25
311.93	561.25
312.727	611.25
313.524	676.25
314.32	730.25
315.117	788.25
315.913	803.25
316.71	835.25
317.506	831.25
318.302	846.25
319.099	869.25
319.895	864.25
320.691	897.25
321.487	891.25
322.283	922.25
323.079	961.25
323.874	983.25
324.67	996.25
325.466	1016.25
326.261	1027.25
327.057	1074.25
327.852	1112.25
328.648	1179.25
329.443	1271.25
330.238	1350.25
331.033	1486.25
331.828	1655.25
332.623	1871.25
333.418	2047.25
334.213	2170.25
335.008	2165.25
335.803	2140.25
336.597	2089.25
337.392	2051.25
338.186	2100.25
338.981	2160.25
339.775	2226.25
340.57	2303.25
341.364	2388.25
342.158	2499.25
342.952	2603.25
343.746	2733.25
344.54	2812.25
345.334	2867.25
346.127	2951.25
346.921	3019.25
347.715	3040.25
348.508	3032.25
349.302	3048.25
350.095	3072.25
350.889	3132.25
351.682	3204.25
352.475	3281.25
353.268	3389.25
354.061	3474.25
354.854	3560.25
355.647	3655.25
356.44	3800.25
357.233	3993.25
358.025	4233.25
358.818	4607.25
359.611	5163.25
360.403	6061.25
361.195	7472.25
361.988	9188.25
362.78	10692.25
363.572	11623.25
364.364	12306.25
365.156	12878.25
365.948	13559.25
366.74	14021.25
367.532	13986.25
368.324	13456.25
369.116	12739.25
369.907	12040.25
370.699	11339.25
371.49	10668.25
372.282	10150.25
373.073	9720.25
373.864	9381.25
374.655	9013.25
375.446	8737.25
376.237	8557.25
377.028	8431.25
377.819	8324.25
378.61	8271.25
379.401	8225.25
380.192	8215.25
380.982	8237.25
381.773	8258.25
382.563	8346.25
383.354	8434.25
384.144	8568.25
384.934	8710.25
385.724	8788.25
386.514	8902.25
387.304	8928.25
388.094	9005.25
388.884	9014.25
389.674	9083.25
390.464	9131.25
391.253	9201.25
392.043	9342.25
392.832	9493.25
393.622	9652.25
394.411	9867.25
395.201	10027.25
395.99	10184.25
396.779	10369.25
397.568	10599.25
398.357	10879.25
399.146	11267.25
399.935	11837.25
400.724	12903.25
401.512	14977.25
402.301	19005.25
403.09	24140.25
403.878	29103.25
404.667	32154.25
405.455	32242.25
406.243	30358.25
407.031	27502.25
407.82	24621.25
408.608	22439.25
409.396	20798.25
410.184	19943.25
410.971	19401.25
411.759	18797.25
412.547	18257.25
413.334	17462.25
414.122	16823.25
414.91	16402.25
415.697	16139.25
416.484	16010.25
417.272	16065.25
418.059	16144.25
418.846	16377.25
419.633	16651.25
420.42	16966.25
421.207	17411.25
421.994	17823.25
422.78	18266.25
423.567	18704.25
424.354	19129.25
425.14	19556.25
425.927	20116.25
426.713	20730.25
427.499	21717.25
428.286	22924.25
429.072	24176.25
429.858	25164.25
430.644	25714.25
431.43	26186.25
432.216	27375.25
433.002	30024.25
433.787	33907.25
434.573	38338.25
435.359	43210.25
436.144	47049.25
436.93	49088.25
437.715	48464.25
438.5	45427.25
439.286	41228.25
440.071	36995.25
440.856	33373.25
441.641	30507.25
442.426	28254.25
443.211	26474.25
443.996	25256.25
444.78	24322.25
445.565	23465.25
446.35	22733.25
447.134	21922.25
447.919	21069.25
448.703	20330.25
449.487	19500.25
450.271	18687.25
451.056	18023.25
451.84	17427.25
452.624	17009.25
453.408	16668.25
454.191	16560.25
454.975	16504.25
455.759	16430.25
456.543	16264.25
457.326	15964.25
458.11	15590.25
458.893	15057.25
459.676	14588.25
460.46	14191.25
461.243	13837.25
462.026	13618.25
462.809	13527.25
463.592	13434.25
464.375	13492.25
465.158	13519.25
465.941	13630.25
466.723	13834.25
467.506	13966.25
468.288	14235.25
469.071	14427.25
469.853	14694.25
470.636	14935.25
471.418	15231.25
472.2	15386.25
472.982	15351.25
473.764	15255.25
474.546	14982.25
475.328	14738.25
476.11	14509.25
476.892	14339.25
477.673	14215.25
478.455	14158.25
479.236	14226.25
480.018	14377.25
480.799	14625.25
481.581	14936.25
482.362	15328.25
483.143	15890.25
483.924	16421.25
484.705	16841.25
485.486	16977.25
486.267	16897.25
487.048	16669.25
487.828	16364.25
488.609	16053.25
489.39	15687.25
490.17	15173.25
490.951	14533.25
491.731	13757.25
492.511	13070.25
493.292	12570.25
494.072	12236.25
494.852	11968.25
495.632	11772.25
496.412	11555.25
497.192	11291.25
497.971	11069.25
498.751	10939.25
499.531	10752.25
500.31	10692.25
501.09	10560.25
501.869	10485.25
502.648	10398.25
503.428	10365.25
504.207	10314.25
504.986	10232.25
505.765	10250.25
506.544	10221.25
507.323	10245.25
508.102	10242.25
508.881	10266.25
509.659	10271.25
510.438	10314.25
511.216	10385.25
511.995	10421.25
512.773	10429.25
513.552	10451.25
514.33	10450.25
515.108	10460.25
515.886	10474.25
516.664	10538.25
517.442	10519.25
518.22	10504.25
518.998	10580.25
519.775	10602.25
520.553	10616.25
521.331	10620.25
522.108	10684.25
522.886	10734.25
523.663	10806.25
524.44	10878.25
525.218	11025.25
525.995	11174.25
526.772	11273.25
527.549	11469.25
528.326	11862.25
529.103	12336.25
529.879	13013.25
530.656	13789.25
531.433	14594.25
532.209	15335.25
532.986	16021.25
533.762	16694.25
534.539	17361.25
535.315	18406.25
536.091	19545.25
536.867	20836.25
537.643	22213.25
538.419	23382.25
539.195	24382.25
539.971	25111.25
540.747	26246.25
541.522	27948.25
542.298	31633.25
543.074	40574.25
543.849	54970.25
544.624	63139.25
545.4	63139.25
546.175	63139.25
546.95	63139.25
547.725	63139.25
548.5	63139.25
549.275	63139.25
550.05	63139.25
550.825	63139.25
551.6	63139.25
552.374	59990.25
553.149	53190.25
553.923	48285.25
554.698	44145.25
555.472	40684.25
556.247	37662.25
557.021	35276.25
557.795	33336.25
558.569	31778.25
559.343	30742.25
560.117	29666.25
560.891	28910.25
561.665	27941.25
562.438	26910.25
563.212	25849.25
563.985	24818.25
564.759	23971.25
565.532	23483.25
566.306	23466.25
567.079	23916.25
567.852	25038.25
568.625	27042.25
569.398	29774.25
570.171	33725.25
570.944	38607.25
571.717	44324.25
572.49	50514.25
573.262	56226.25
574.035	61340.25
574.808	63139.25
575.58	63139.25
576.352	63139.25
577.125	63139.25
577.897	63139.25
578.669	59932.25
579.441	56124.25
580.213	52658.25
580.985	49046.25
581.757	45856.25
582.529	42806.25
583.301	39789.25
584.072	37212.25
584.844	34877.25
585.615	32799.25
586.387	31004.25
587.158	29322.25
587.929	27990.25
588.701	26764.25
589.472	25513.25
590.243	24523.25
591.014	23625.25
591.785	22928.25
592.556	22455.25
593.326	21918.25
594.097	21359.25
594.868	20721.25
595.638	19839.25
596.409	19125.25
597.179	18342.25
597.949	17739.25
598.72	17239.25
599.49	16818.25
600.26	16373.25
601.03	16054.25
601.8	15657.25
602.57	15345.25
603.34	15097.25
604.109	14831.25
604.879	14521.25
605.649	14403.25
606.418	14103.25
607.188	13970.25
607.957	13796.25
608.726	13646.25
609.496	13519.25
610.265	13364.25
611.034	13175.25
611.803	13026.25
612.572	12872.25
613.341	12707.25
614.109	12581.25
614.878	12460.25
615.647	12296.25
616.415	12212.25
617.184	12167.25
617.952	12050.25
618.721	11986.25
619.489	11875.25
620.257	11824.25
621.025	11766.25
621.793	11778.25
622.561	11689.25
623.329	11682.25
624.097	11625.25
624.865	11603.25
625.632	11585.25
626.4	11478.25
627.168	11492.25
627.935	11443.25
628.702	11400.25
629.47	11338.25
630.237	11302.25
631.004	11300.25
631.771	11185.25
632.538	11190.25
633.305	11219.25
634.072	11082.25
634.839	11051.25
635.606	11042.25
636.372	10991.25
637.139	11025.25
637.905	10956.25
638.672	10895.25
639.438	10843.25
640.204	10863.25
640.971	10732.25
641.737	10758.25
642.503	10731.25
643.269	10654.25
644.035	10605.25
644.8	10674.25
645.566	10570.25
646.332	10583.25
647.097	10490.25
647.863	10500.25
648.629	10435.25
649.394	10431.25
650.159	10434.25
650.924	10362.25
651.69	10363.25
652.455	10310.25
653.22	10301.25
653.985	10273.25
654.75	10289.25
655.514	10234.25
656.279	10193.25
657.044	10223.25
657.808	10212.25
658.573	10187.25
659.337	10188.25
660.102	10181.25
660.866	10148.25
661.63	10111.25
662.394	10122.25
663.158	10172.25
663.922	10065.25
664.686	10066.25
665.45	10126.25
666.214	10087.25
666.978	10044.25
667.741	10027.25
668.505	10072.25
669.268	9985.25
670.032	10037.25
670.795	10031.25
671.558	9991.25
672.321	9943.25
673.084	9932.25
673.847	9924.25
674.61	9896.25
675.373	9840.25
676.136	9911.25
676.899	9828.25
677.662	9803.25
678.424	9833.25
679.187	9748.25
679.949	9745.25
680.711	9738.25
681.474	9788.25
682.236	9762.25
682.998	9770.25
683.76	9776.25
684.522	9806.25
685.284	9775.25
686.046	9780.25
686.808	9744.25
687.569	9763.25
688.331	9791.25
689.092	9754.25
689.854	9791.25
690.615	9805.25
691.377	9893.25
692.138	9955.25
692.899	10000.25
693.66	10019.25
694.421	10033.25
695.182	10011.25
695.943	9942.25
696.704	9875.25
697.465	9816.25
698.225	9758.25
698.986	9729.25
699.746	9638.25
700.507	9599.25
701.267	9538.25
702.027	9543.25
702.788	9503.25
703.548	9404.25
704.308	9421.25
705.068	9386.25
705.828	9327.25
706.588	9230.25
707.347	9253.25
708.107	9247.25
708.867	9186.25
709.626	9187.25
710.386	9153.25
711.145	9108.25
711.904	9067.25
712.664	9009.25
713.423	8886.25
714.182	8856.25
714.941	8753.25
715.7	8655.25
716.459	8597.25
717.218	8539.25
717.976	8478.25
718.735	8360.25
719.494	8332.25
720.252	8304.25
721.011	8235.25
721.769	8124.25
722.527	8075.25
723.285	8091.25
724.044	7993.25
724.802	7937.25
725.56	7884.25
726.317	7786.25
727.075	7726.25
727.833	7582.25
728.591	7458.25
729.348	7343.25
730.106	7163.25
730.863	7005.25
731.621	6856.25
732.378	6739.25
733.135	6571.25
733.893	6426.25
734.65	6292.25
735.407	6210.25
736.164	6105.25
736.92	5981.25
737.677	5846.25
738.434	5765.25
739.191	5688.25
739.947	5606.25
740.704	5515.25
741.46	5434.25
742.216	5362.25
742.973	5334.25
743.729	5231.25
744.485	5115.25
745.241	5067.25
745.997	5046.25
746.753	4971.25
747.509	4852.25
748.265	4788.25
749.02	4769.25
749.776	4710.25
750.531	4656.25
751.287	4559.25
752.042	4521.25
752.798	4495.25
753.553	4391.25
754.308	4319.25
755.063	4253.25
755.818	4239.25
756.573	4164.25
757.328	4069.25
758.083	4015.25
758.837	3993.25
759.592	3951.25
760.347	3855.25
761.101	3765.25
761.855	3740.25
762.61	3696.25
763.364	3650.25
764.118	3559.25
764.872	3468.25
765.626	3429.25
766.38	3388.25
767.134	3325.25
767.888	3230.25
768.642	3168.25
769.396	3119.25
770.149	3088.25
770.903	3004.25
771.656	2921.25
772.409	2893.25
773.163	2854.25
773.916	2845.25
774.669	2765.25
775.422	2720.25
776.175	2651.25
776.928	2618.25
777.681	2568.25
778.434	2502.25
779.186	2468.25
779.939	2433.25
780.692	2404.25
781.444	2339.25
782.197	2274.25
782.949	2252.25
783.701	2204.25
784.453	2194.25
785.205	2134.25
785.957	2085.25
786.709	2050.25
787.461	2055.25
788.213	2013.25
788.965	1952.25
789.716	1911.25
790.468	1880.25
791.22	1891.25
791.971	1852.25
792.722	1800.25
793.474	1770.25
794.225	1735.25
794.976	1730.25
795.727	1710.25
796.478	1664.25
797.229	1620.25
797.98	1601.25
798.731	1591.25
799.481	1539.25
800.232	1501.25
800.982	1475.25
801.733	1449.25
802.483	1438.25
803.233	1403.25
803.984	1361.25
804.734	1334.25
805.484	1289.25
806.234	1286.25
806.984	1274.25
807.734	1223.25
808.484	1189.25
809.233	1155.25
809.983	1142.25
810.732	1124.25
811.482	1095.25
812.231	1058.25
812.981	1015.25
813.73	1002.25
814.479	979.25
815.228	971.25
815.977	941.25
816.726	897.25
817.475	894.25
818.224	862.25
818.973	860.25
819.721	841.25
820.47	809.25
821.219	794.25
821.967	791.25
822.715	782.25
823.464	757.25
824.212	749.25
824.96	727.25
825.708	734.25
826.456	742.25
827.204	713.25
827.952	706.25
828.7	702.25
829.447	691.25
830.195	704.25
830.942	707.25
831.69	686.25
832.437	676.25
833.185	663.25
833.932	680.25
834.679	676.25
835.426	667.25
836.173	657.25
836.92	638.25
837.667	630.25
838.414	640.25
839.16	635.25
839.907	632.25
840.654	609.25
841.4	587.25
842.147	593.25
842.893	587.25
843.639	572.25
844.385	563.25
845.131	548.25
845.877	535.25
846.623	535.25
847.369	524.25
848.115	503.25
848.861	472.25
849.607	460.25
850.352	476.25
851.098	463.25
851.843	449.25
852.588	440.25
853.334	421.25
854.079	411.25
854.824	408.25
855.569	409.25
856.314	398.25
857.059	390.25
857.804	377.25
858.549	362.25
859.293	362.25
860.038	367.25
860.783	367.25
861.527	361.25
862.271	355.25
863.016	342.25
863.76	341.25
864.504	347.25
865.248	338.25
865.992	332.25
866.736	338.25
867.48	329.25
868.224	331.25
868.968	323.25
869.711	326.25
870.455	321.25
871.198	323.25
871.942	319.25
872.685	319.25
873.428	321.25
874.171	317.25
874.915	305.25
875.658	300.25
876.401	304.25
877.143	307.25
877.886	301.25
878.629	300.25
879.372	299.25
880.114	286.25
880.857	285.25
881.599	284.25
882.342	285.25
883.084	300.25
883.826	292.25
884.568	288.25
885.31	288.25
886.052	284.25
886.794	282.25
887.536	285.25
888.278	293.25
889.019	285.25
889.761	287.25
890.503	293.25
891.244	287.25
891.985	282.25
892.727	293.25
893.468	295.25
894.209	286.25
894.95	283.25
895.691	286.25
896.432	290.25
897.173	289.25
897.914	286.25
898.654	280.25
899.395	281.25
900.136	283.25
900.876	279.25
901.617	285.25
902.357	282.25
903.097	287.25
903.837	272.25
904.577	270.25
905.317	272.25
906.057	265.25
906.797	273.25
907.537	268.25
908.277	263.25
909.016	255.25
909.756	254.25
910.496	254.25
911.235	246.25
911.974	245.25
912.714	241.25
913.453	240.25
914.192	233.25
914.931	227.25
915.67	223.25
916.409	223.25
917.148	218.25
917.886	216.25
918.625	213.25
919.364	205.25
920.102	201.25
920.841	195.25
921.579	192.25
922.317	185.25
923.055	183.25
923.794	178.25
924.532	172.25
925.27	163.25
926.008	168.25
926.745	160.25
927.483	153.25
928.221	154.25
928.958	144.25
929.696	138.25
930.433	131.25
931.171	129.25
931.908	127.25
932.645	121.25
933.383	113.25
934.12	105.25
934.857	98.25
935.594	89.25
936.33	93.25
937.067	84.25
937.804	77.25
938.541	77.25
939.277	69.25
940.014	72.25
940.75	62.25
941.486	65.25
942.223	63.25
942.959	58.25
943.695	59.25
944.431	54.25
945.167	57.25
945.903	54.25
946.638	50.25
947.374	52.25
948.11	49.25
948.845	51.25
949.581	46.25
950.316	48.25
951.052	46.25
951.787	41.25
952.522	44.25
953.257	40.25
953.992	38.25
954.727	40.25
955.462	39.25
956.197	39.25
956.932	39.25
957.666	38.25
958.401	37.25
959.135	39.25
959.87	36.25
960.604	37.25
961.339	39.25
962.073	36.25
962.807	42.25
963.541	36.25
964.275	36.25
965.009	37.25
965.743	37.25
966.476	42.25
967.21	37.25
967.944	38.25
968.677	34.25
969.411	37.25
970.144	36.25
970.877	38.25
971.611	40.25
972.344	38.25
973.077	40.25
973.81	42.25
974.543	38.25
975.276	41.25
976.008	38.25
976.741	41.25
977.474	38.25
978.206	39.25
978.939	42.25
979.671	39.25
980.403	41.25
981.136	36.25
981.868	45.25
982.6	41.25
983.332	42.25
984.064	43.25
984.796	43.25
985.527	43.25
986.259	42.25
986.991	1.25
987.722	0.25
988.454	-2.75
989.185	1.25
989.917	30.25
990.648	30.25
991.379	33.25
992.11	30.25
992.841	32.25
993.572	27.25
994.303	45.25
995.034	43.25
995.764	39.25
996.495	44.25
997.226	45.25
997.956	45.25
998.687	-0.75
999.417	-0.75
1000.147	2.25
1000.877	-0.75
