Data from FLMS155811_12-09-34-543.txt Node
Date: Mon Mar 25 12:09:34 MDT 2024
User: andh57
Spectrometer: FLMS15581
Trigger mode: 0
Integration Time (sec): 5.154490E-1
Scans to average: 4
Electric dark correction enabled: true
Nonlinearity correction enabled: false
Boxcar width: 0
XAxis mode: Wavelengths
Number of Pixels in Spectrum: 2048
>>>>>Begin Spectral Data<<<<<
298.026	-25.97
298.106	-25.97
298.185	-25.97
298.265	-93.13
298.344	-47.21
298.424	-70.17
298.503	-71.89
298.583	-73.62
298.662	-54.67
298.741	-46.64
298.821	-83.95
298.9	-25.4
298.98	-47.21
299.059	1
299.138	-7.03
299.217	47.5
299.297	57.83
299.376	49.22
299.455	117.53
299.535	87.68
299.614	119.82
299.693	120.4
299.772	139.34
299.852	166.89
299.931	194.44
300.01	201.33
300.089	203.63
300.168	237.49
300.247	264.47
300.327	248.97
300.406	289.73
300.485	316.71
300.564	288.01
300.643	319.58
300.722	345.98
300.801	338.52
300.88	361.48
300.959	371.24
301.038	371.24
301.117	369.51
301.196	335.07
301.275	372.96
301.354	401.08
301.433	356.31
301.512	389.03
301.591	401.66
301.67	370.09
301.749	446.43
301.828	393.62
301.907	370.09
301.985	399.36
302.064	391.9
302.143	366.64
302.222	401.08
302.301	372.96
302.38	341.96
302.458	375.83
302.537	340.81
302.616	395.34
302.695	345.41
302.773	379.27
302.852	335.07
302.931	347.13
303.01	358.61
303.088	335.65
303.167	319.58
303.246	369.51
303.324	336.8
303.403	324.74
303.481	378.7
303.56	370.66
303.639	331.63
303.717	377.55
303.796	360.9
303.874	344.26
303.953	356.31
304.032	327.61
304.11	327.61
304.189	359.18
304.267	352.29
304.346	344.83
304.424	389.6
304.502	349.42
304.581	312.69
304.659	352.87
304.738	361.48
304.816	339.09
304.895	310.97
304.973	363.2
305.051	364.92
305.13	376.98
305.208	339.67
305.286	328.76
305.365	328.19
305.443	344.26
305.521	345.98
305.6	336.22
305.678	368.94
305.756	350
305.834	349.42
305.913	355.16
305.991	340.24
306.069	339.67
306.147	365.5
306.225	296.62
306.304	338.52
306.382	377.55
306.46	319.58
306.538	359.18
306.616	348.28
306.694	313.84
306.772	343.68
306.85	355.16
306.929	390.75
307.007	357.46
307.085	388.46
307.163	386.73
307.241	348.85
307.319	376.4
307.397	335.65
307.475	318.43
307.553	347.13
307.631	361.48
307.709	340.24
307.786	357.46
307.864	321.3
307.942	375.25
308.02	380.99
308.098	345.98
308.176	336.22
308.254	383.29
308.332	344.83
308.409	346.55
308.487	375.83
308.565	416.58
308.643	350
308.721	370.66
308.798	332.78
308.876	350.57
308.954	395.34
309.032	340.24
309.109	350.57
309.187	345.98
309.265	390.75
309.342	381.57
309.42	335.07
309.498	353.44
309.575	387.88
309.653	334.5
309.731	365.5
309.808	343.68
309.886	372.96
309.963	337.37
310.041	383.29
310.119	383.29
310.196	350.57
310.274	335.65
310.351	346.55
310.429	367.79
310.506	380.99
310.584	368.94
310.661	362.05
310.738	380.42
310.816	367.22
310.893	391.33
310.971	354.59
311.048	338.52
311.126	370.09
311.203	359.76
311.28	357.46
311.358	358.61
311.435	354.02
311.512	373.53
311.59	381.57
311.667	368.94
311.744	358.61
311.821	359.18
311.899	362.05
311.976	345.98
312.053	350
312.13	375.25
312.208	357.46
312.285	385.01
312.362	382.14
312.439	367.79
312.516	329.91
312.593	367.79
312.671	371.24
312.748	346.55
312.825	348.28
312.902	341.39
312.979	362.05
313.056	340.81
313.133	421.17
313.21	374.11
313.287	374.11
313.364	364.92
313.441	400.51
313.518	393.05
313.595	389.03
313.672	392.47
313.749	378.7
313.826	376.98
313.903	389.03
313.98	355.16
314.057	354.59
314.134	378.7
314.211	409.69
314.287	364.35
314.364	375.25
314.441	405.68
314.518	394.77
314.595	379.85
314.672	350.57
314.748	396.49
314.825	350.57
314.902	376.98
314.979	376.4
315.055	382.14
315.132	340.81
315.209	378.12
315.286	383.29
315.362	405.1
315.439	381.57
315.516	391.9
315.592	389.03
315.669	339.09
315.746	422.9
315.822	415.43
315.899	380.42
315.975	404.53
316.052	428.06
316.128	382.72
316.205	404.53
316.282	425.77
316.358	389.03
316.435	528.51
316.511	380.42
316.588	364.92
316.664	354.02
316.741	363.2
316.817	416.01
316.893	347.13
316.97	358.03
317.046	406.25
317.123	370.66
317.199	411.42
317.275	346.55
317.352	364.92
317.428	408.55
317.504	383.29
317.581	367.22
317.657	423.47
317.733	351.15
317.81	375.25
317.886	358.03
317.962	397.07
318.038	389.6
318.115	387.88
318.191	386.16
318.267	379.85
318.343	343.11
318.419	382.14
318.496	358.61
318.572	344.26
318.648	395.34
318.724	387.31
318.8	385.01
318.876	390.75
318.952	369.51
319.028	401.66
319.105	403.38
319.181	371.81
319.257	391.33
319.333	383.29
319.409	385.59
319.485	421.17
319.561	384.44
319.637	374.11
319.713	399.94
319.789	366.07
319.865	397.64
319.94	382.72
320.016	367.22
320.092	372.38
320.168	398.79
320.244	378.7
320.32	375.83
320.396	372.96
320.472	382.72
320.547	394.77
320.623	388.46
320.699	417.16
320.775	377.55
320.851	405.1
320.926	374.11
321.002	376.98
321.078	363.77
321.154	377.55
321.229	424.62
321.305	440.69
321.381	372.38
321.456	399.36
321.532	373.53
321.608	380.99
321.683	372.96
321.759	375.25
321.835	407.4
321.91	382.14
321.986	390.18
322.061	404.53
322.137	385.01
322.212	378.12
322.288	357.46
322.364	333.93
322.439	390.18
322.515	391.9
322.59	390.75
322.666	375.83
322.741	446.43
322.816	409.69
322.892	378.12
322.967	456.76
323.043	394.2
323.118	383.29
323.193	396.49
323.269	381.57
323.344	386.73
323.42	366.64
323.495	371.81
323.57	378.7
323.646	420.03
323.721	390.75
323.796	371.24
323.871	380.42
323.947	397.07
324.022	396.49
324.097	399.94
324.172	402.81
324.248	376.98
324.323	383.86
324.398	440.12
324.473	380.42
324.548	348.85
324.623	397.07
324.699	406.82
324.774	422.9
324.849	399.94
324.924	340.81
324.999	371.81
325.074	350
325.149	371.24
325.224	408.55
325.299	367.79
325.374	414.86
325.449	389.6
325.524	376.98
325.599	398.79
325.674	389.03
325.749	440.69
325.824	383.29
325.899	389.03
325.974	387.88
326.049	378.12
326.124	455.61
326.199	350.57
326.273	450.45
326.348	426.91
326.423	426.34
326.498	426.34
326.573	412.56
326.648	418.3
326.722	371.24
326.797	416.01
326.872	391.33
326.947	395.34
327.021	366.07
327.096	358.61
327.171	410.84
327.245	370.66
327.32	422.9
327.395	394.2
327.47	360.9
327.544	393.62
327.619	383.29
327.693	507.85
327.768	383.29
327.843	383.86
327.917	392.47
327.992	360.33
328.066	368.37
328.141	379.85
328.215	386.16
328.29	393.62
328.364	386.73
328.439	397.07
328.513	428.64
328.588	406.25
328.662	414.86
328.737	362.05
328.811	372.38
328.886	393.62
328.96	397.07
329.035	398.79
329.109	363.2
329.183	401.08
329.258	385.01
329.332	363.77
329.406	399.36
329.481	394.2
329.555	378.12
329.629	362.63
329.704	383.86
329.778	403.95
329.852	358.61
329.926	407.4
330.001	367.22
330.075	398.79
330.149	411.42
330.223	401.66
330.297	386.16
330.372	410.84
330.446	363.2
330.52	413.71
330.594	396.49
330.668	370.66
330.742	418.3
330.816	380.42
330.89	376.4
330.964	404.53
331.038	382.72
331.113	370.66
331.187	405.68
331.261	401.66
331.335	413.14
331.409	385.01
331.483	378.12
331.557	381.57
331.63	398.21
331.704	372.96
331.778	426.34
331.852	372.96
331.926	418.88
332	381.57
332.074	401.08
332.148	417.73
332.222	442.41
332.295	388.46
332.369	415.43
332.443	410.84
332.517	377.55
332.591	390.18
332.665	371.81
332.738	372.96
332.812	346.55
332.886	399.94
332.959	384.44
333.033	392.47
333.107	428.64
333.181	393.05
333.254	367.79
333.328	424.04
333.402	360.33
333.475	372.96
333.549	364.92
333.622	376.4
333.696	382.72
333.77	383.29
333.843	410.84
333.917	362.63
333.99	495.79
334.064	373.53
334.137	388.46
334.211	375.25
334.284	344.26
334.358	455.61
334.431	372.96
334.505	388.46
334.578	399.36
334.652	391.33
334.725	434.95
334.799	389.6
334.872	366.64
334.945	426.91
335.019	374.68
335.092	396.49
335.165	402.23
335.239	410.84
335.312	383.86
335.385	393.62
335.459	385.59
335.532	418.3
335.605	416.58
335.678	458.48
335.752	388.46
335.825	380.99
335.898	365.5
335.971	455.04
336.045	409.69
336.118	395.34
336.191	410.84
336.264	403.95
336.337	418.3
336.41	366.64
336.483	382.72
336.557	380.99
336.63	380.99
336.703	413.14
336.776	390.75
336.849	435.52
336.922	399.36
336.995	406.82
337.068	403.95
337.141	401.66
337.214	409.69
337.287	383.86
337.36	374.11
337.433	385.59
337.506	367.22
337.579	410.84
337.652	398.21
337.725	398.21
337.797	370.09
337.87	398.21
337.943	422.32
338.016	421.75
338.089	378.12
338.162	374.68
338.235	399.94
338.307	378.12
338.38	418.3
338.453	429.78
338.526	377.55
338.598	415.43
338.671	380.42
338.744	391.33
338.817	399.94
338.889	406.82
338.962	401.66
339.035	390.18
339.107	364.35
339.18	358.03
339.253	394.77
339.325	375.25
339.398	395.34
339.47	369.51
339.543	440.69
339.616	422.32
339.688	411.42
339.761	397.64
339.833	453.32
339.906	403.95
339.978	401.66
340.051	384.44
340.123	395.34
340.196	403.38
340.268	375.25
340.341	399.36
340.413	436.67
340.485	403.95
340.558	405.1
340.63	433.23
340.703	399.36
340.775	361.48
340.847	391.33
340.92	358.61
340.992	395.34
341.064	383.29
341.137	418.88
341.209	403.38
341.281	401.08
341.354	366.64
341.426	408.55
341.498	417.16
341.57	393.05
341.643	408.55
341.715	398.79
341.787	404.53
341.859	392.47
341.931	364.35
342.003	367.22
342.076	429.21
342.148	465.95
342.22	395.92
342.292	401.66
342.364	402.81
342.436	407.97
342.508	404.53
342.58	378.12
342.652	395.92
342.724	438.97
342.796	401.66
342.868	416.01
342.94	417.16
343.012	440.12
343.084	418.88
343.156	392.47
343.228	405.1
343.3	399.36
343.372	414.29
343.444	400.51
343.516	423.47
343.588	397.64
343.66	411.99
343.731	393.05
343.803	405.1
343.875	393.62
343.947	403.95
344.019	407.97
344.09	383.86
344.162	389.6
344.234	405.68
344.306	430.36
344.377	445.86
344.449	407.97
344.521	415.43
344.593	406.82
344.664	397.64
344.736	413.71
344.808	391.9
344.879	380.99
344.951	395.92
345.023	389.03
345.094	385.59
345.166	409.12
345.237	391.33
345.309	409.12
345.38	407.97
345.452	390.18
345.524	365.5
345.595	416.01
345.667	370.09
345.738	402.23
345.81	436.1
345.881	405.68
345.953	413.14
346.024	449.87
346.095	425.77
346.167	384.44
346.238	377.55
346.31	435.52
346.381	413.14
346.452	410.27
346.524	366.64
346.595	379.27
346.666	446.43
346.738	410.27
346.809	389.03
346.88	411.42
346.952	410.84
347.023	423.47
347.094	387.88
347.165	415.43
347.237	388.46
347.308	402.81
347.379	393.05
347.45	394.77
347.521	435.52
347.593	394.77
347.664	468.82
347.735	385.59
347.806	414.29
347.877	450.45
347.948	442.99
348.019	399.94
348.09	411.99
348.161	424.04
348.233	389.6
348.304	428.06
348.375	437.82
348.446	416.01
348.517	430.93
348.588	402.81
348.659	411.42
348.73	460.21
348.801	438.97
348.871	423.47
348.942	433.23
349.013	402.23
349.084	412.56
349.155	443.56
349.226	435.52
349.297	411.42
349.368	425.77
349.439	418.88
349.509	386.73
349.58	444.71
349.651	411.42
349.722	397.64
349.793	402.81
349.863	426.91
349.934	394.77
350.005	416.58
350.076	411.42
350.146	390.75
350.217	403.95
350.288	379.27
350.358	430.93
350.429	409.12
350.5	427.49
350.57	448.73
350.641	406.82
350.711	430.36
350.782	425.77
350.853	430.36
350.923	428.64
350.994	410.27
351.064	432.08
351.135	413.71
351.205	445.86
351.276	422.9
351.346	405.68
351.417	427.49
351.487	427.49
351.558	420.03
351.628	447
351.699	388.46
351.769	446.43
351.84	454.47
351.91	429.21
351.98	407.97
352.051	429.21
352.121	436.67
352.191	434.95
352.262	429.78
352.332	425.77
352.402	414.86
352.473	437.82
352.543	445.86
352.613	451.6
352.683	433.8
352.754	431.51
352.824	403.95
352.894	452.17
352.964	436.1
353.035	426.91
353.105	451.6
353.175	451.02
353.245	459.06
353.315	436.1
353.385	448.15
353.455	460.78
353.526	398.79
353.596	444.13
353.666	456.19
353.736	435.52
353.806	409.12
353.876	437.82
353.946	425.19
354.016	476.28
354.086	449.3
354.156	439.54
354.226	447
354.296	502.11
354.366	494.07
354.436	486.61
354.506	437.25
354.576	446.43
354.645	469.96
354.715	494.65
354.785	501.53
354.855	444.71
354.925	452.74
354.995	456.19
355.065	513.59
355.134	513.59
355.204	508.42
355.274	514.16
355.344	510.14
355.414	534.83
355.483	532.53
355.553	557.21
355.623	526.79
355.693	526.22
355.762	529.66
355.832	539.42
355.902	546.88
355.971	562.95
356.041	557.21
356.111	577.88
356.18	570.99
356.25	599.11
356.319	631.26
356.389	627.82
356.459	629.54
356.528	669.72
356.598	709.32
356.667	709.32
356.737	715.64
356.806	699.57
356.876	754.1
356.945	752.95
357.015	766.72
357.084	788.54
357.154	794.28
357.223	844.21
357.292	922.85
357.362	886.12
357.431	920.56
357.501	982.55
357.57	991.16
357.639	1006.66
357.709	1025.02
357.778	1110.55
357.847	1154.18
357.917	1175.99
357.986	1226.5
358.055	1291.94
358.124	1341.87
358.194	1446.92
358.263	2329.16
358.332	1492.84
358.401	1525.55
358.471	1574.35
358.54	1608.79
358.609	1704.64
358.678	1726.46
358.747	1852.16
358.816	1891.77
358.886	1973.28
358.955	1950.89
359.024	2092.67
359.093	2185.08
359.162	2252.24
359.231	2314.23
359.3	2423.29
359.369	2538.67
359.438	2586.89
359.507	2662.08
359.576	2716.04
359.645	2878.48
359.714	3032.89
359.783	3133.34
359.852	3166.63
359.921	3339.98
359.99	3390.49
360.059	3622.96
360.128	3657.4
360.197	3832.47
360.266	3988.03
360.334	4224.51
360.403	4378.35
360.472	4579.25
360.541	4575.8
360.61	4853.05
360.679	4901.26
360.747	5106.18
360.816	5283.55
360.885	5470.67
360.954	5782.93
361.022	5952.26
361.091	6134.22
361.16	6281.74
361.228	6583.66
361.297	6839.09
361.366	7147.33
361.434	7360.29
361.503	7627.2
361.572	7751.76
361.64	8122.56
361.709	8449.17
361.778	8695.99
361.846	8964.63
361.915	9181.02
361.983	9613.25
362.052	10153.96
362.12	10434.65
362.189	10636.69
362.257	11072.36
362.326	11423.65
362.394	11892.04
362.463	12206.02
362.531	12588.3
362.6	12964.27
362.668	13429.79
362.737	13887.27
362.805	14264.96
362.873	14560
362.942	15234.45
363.01	15584.6
363.079	15863.56
363.147	16186.72
363.215	17058.06
363.284	17319.23
363.352	17633.78
363.42	18299.63
363.488	18711.19
363.557	18986.71
363.625	19386.21
363.693	19944.72
363.761	20479.11
363.83	20847.05
363.898	21239.67
363.966	21744.79
364.034	22244.17
364.102	22536.34
364.171	23071.31
364.239	23700.99
364.307	24383.48
364.375	24908.69
364.443	25426.44
364.511	25654.89
364.579	26433.24
364.647	26876.37
364.715	27929.09
364.783	28499.07
364.851	28522.61
364.919	29020.84
364.987	29582.22
365.055	29768.19
365.123	30685.45
365.191	31222.72
365.259	31297.91
365.327	32051.58
365.395	32963.67
365.463	33300.6
365.531	33628.36
365.599	34241.97
365.667	35201.7
365.735	35962.25
365.802	36680.9
365.87	37449.49
365.938	38098.69
366.006	38714.6
366.074	39005.61
366.142	40022.75
366.209	40545.09
366.277	41081.78
366.345	41922.69
366.413	42858.32
366.48	43589.02
366.548	44203.78
366.616	44440.27
366.683	45073.97
366.751	45840.26
366.819	46762.68
366.886	47599
366.954	48709.12
367.022	48160.38
367.089	48596.62
367.157	49574.15
367.224	50235.4
367.292	50017.85
367.36	50049.42
367.427	50506.33
367.495	51365.61
367.562	51326.58
367.63	51669.25
367.697	52076.22
367.765	52713.37
367.832	52561.25
367.9	52826.44
367.967	53113.44
368.034	53417.67
368.102	53813.73
368.169	54479
368.237	54537.54
368.304	54790.68
368.371	54496.22
368.439	54810.2
368.506	55109.25
368.573	55668.9
368.641	55810.68
368.708	55915.15
368.775	56310.64
368.843	56338.19
368.91	56368.04
368.977	56432.33
369.044	56609.69
369.112	56288.83
369.179	56400.18
369.246	56532.2
369.313	56659.63
369.38	56727.94
369.448	56662.5
369.515	56542.54
369.582	56048.89
369.649	56046.02
369.716	56360.58
369.783	56353.11
369.85	56155.66
369.917	55843.97
369.984	55287.19
370.052	55225.2
370.119	54656.94
370.186	54476.13
370.253	53568.05
370.32	53156.5
370.387	53076.13
370.454	52125.01
370.521	51179.63
370.587	49777.34
370.654	48922.08
370.721	48021.47
370.788	46937.18
370.855	45405.17
370.922	43882.91
370.989	42523.1
371.056	41396.33
371.123	39205.37
371.189	36886.97
371.256	35275.75
371.323	33666.82
371.39	31907.5
371.457	30267.58
371.523	28484.72
371.59	26860.87
371.657	25491.88
371.724	23541.42
371.79	22034.66
371.857	20851.64
371.924	19398.84
371.991	18173.92
372.057	16854.29
372.124	15765.41
372.191	14772.38
372.257	13653.08
372.324	12589.45
372.39	11607.33
372.457	10761.25
372.524	10119.52
372.59	9337.15
372.657	8585.21
372.723	7937.74
372.79	7393.58
372.856	6910.27
372.923	6527.99
372.989	6017.7
373.056	5594.08
373.122	5198.02
373.189	4776.7
373.255	4513.81
373.322	4253.21
373.388	3923.16
373.454	3664.29
373.521	3496.68
373.587	3262.49
373.654	3024.85
373.72	2918.66
373.786	2715.46
373.853	2551.87
373.919	2438.22
373.985	2248.22
374.052	2134.57
374.118	2036.99
374.184	1903.82
374.25	1873.4
374.317	1756.3
374.383	1605.92
374.449	1592.71
374.515	1528.42
374.581	1430.84
374.648	1382.05
374.714	1325.8
374.78	1251.18
374.846	1280.46
374.912	1206.41
374.978	1120.31
375.044	1096.78
375.11	1083.57
375.177	993.45
375.243	984.27
375.309	976.81
375.375	945.24
375.441	873.49
375.507	905.06
375.573	857.99
375.639	840.2
375.705	824.7
375.771	782.22
375.837	755.82
375.903	748.93
375.968	700.71
376.034	684.64
376.1	714.49
376.166	721.38
376.232	716.79
376.298	641.02
376.364	663.4
376.43	648.48
376.495	638.15
376.561	630.11
376.627	585.91
376.693	635.85
376.759	596.82
376.824	638.15
376.89	595.1
376.956	592.8
377.022	566.97
377.087	541.71
377.153	566.97
377.219	586.49
377.284	562.95
377.35	553.19
377.416	540.57
377.481	544.01
377.547	513.01
377.613	552.05
377.678	527.94
377.744	506.13
377.809	507.85
377.875	535.4
377.94	548.03
378.006	496.94
378.071	498.66
378.137	485.46
378.202	515.31
378.268	502.11
378.333	468.82
378.399	478
378.464	482.02
378.53	497.52
378.595	512.44
378.661	470.54
378.726	467.67
378.791	492.35
378.857	485.46
378.922	452.74
378.987	457.91
379.053	462.5
379.118	471.69
379.183	439.54
379.249	465.37
379.314	452.74
379.379	436.67
379.444	463.08
379.51	430.36
379.575	417.16
379.64	464.8
379.705	417.73
379.771	489.48
379.836	441.26
379.901	450.45
379.966	457.91
380.031	428.06
380.096	424.62
380.161	447.58
380.227	443.56
380.292	442.99
380.357	425.77
380.422	451.02
380.487	398.21
380.552	422.9
380.617	398.21
380.682	430.93
380.747	429.78
380.812	420.6
380.877	441.84
380.942	410.27
381.007	444.13
381.072	435.52
381.137	426.91
381.202	430.36
381.266	436.67
381.331	425.19
381.396	486.04
381.461	441.26
381.526	411.42
381.591	438.39
381.656	397.64
381.72	429.21
381.785	406.25
381.85	455.04
381.915	407.4
381.979	465.37
382.044	439.54
382.109	393.05
382.174	413.14
382.238	443.56
382.303	430.93
382.368	433.8
382.432	414.86
382.497	391.9
382.562	427.49
382.626	397.07
382.691	434.95
382.756	368.94
382.82	388.46
382.885	400.51
382.949	418.88
383.014	422.9
383.078	407.4
383.143	382.72
383.208	428.06
383.272	448.73
383.337	445.28
383.401	443.56
383.465	409.12
383.53	398.79
383.594	433.23
383.659	416.01
383.723	386.73
383.788	382.14
383.852	406.25
383.916	389.03
383.981	410.27
384.045	402.23
384.109	399.94
384.174	416.58
384.238	417.16
384.302	375.25
384.367	403.38
384.431	439.54
384.495	467.09
384.56	401.08
384.624	395.34
384.688	413.14
384.752	395.34
384.816	422.9
384.881	402.23
384.945	404.53
385.009	375.25
385.073	413.14
385.137	424.04
385.201	417.16
385.265	396.49
385.33	377.55
385.394	379.27
385.458	395.34
385.522	368.94
385.586	381.57
385.65	473.98
385.714	401.08
385.778	390.75
385.842	406.82
385.906	454.47
385.97	407.4
386.034	414.86
386.098	402.81
386.162	406.25
386.226	397.07
386.29	396.49
386.354	391.33
386.417	401.08
386.481	402.23
386.545	429.21
386.609	390.75
386.673	385.01
386.737	367.79
386.8	378.7
386.864	413.14
386.928	393.05
386.992	430.36
387.056	385.01
387.119	399.36
387.183	403.95
387.247	435.52
387.31	370.09
387.374	393.05
387.438	374.11
387.502	397.07
387.565	401.66
387.629	441.26
387.692	388.46
387.756	426.91
387.82	364.35
387.883	409.69
387.947	408.55
388.01	436.1
388.074	413.14
388.138	401.08
388.201	437.82
388.265	418.3
388.328	376.4
388.392	418.88
388.455	422.9
388.519	427.49
388.582	390.18
388.645	402.81
388.709	468.82
388.772	396.49
388.836	349.42
388.899	371.24
388.962	401.08
389.026	370.09
389.089	410.27
389.153	385.59
389.216	382.14
389.279	386.16
389.343	368.37
389.406	472.26
389.469	416.58
389.532	397.64
389.596	382.72
389.659	366.64
389.722	405.68
389.785	410.27
389.848	395.92
389.912	412.56
389.975	408.55
390.038	366.64
390.101	356.89
390.164	410.27
390.227	407.97
390.291	407.4
390.354	429.21
390.417	413.14
390.48	361.48
390.543	389.6
390.606	383.86
390.669	424.62
390.732	391.33
390.795	403.38
390.858	430.93
390.921	420.6
390.984	369.51
391.047	387.31
391.11	379.85
391.173	399.36
391.236	352.87
391.299	413.14
391.362	414.86
391.424	393.05
391.487	350.57
391.55	375.83
391.613	363.77
391.676	407.4
391.739	380.42
391.802	388.46
391.864	385.59
391.927	390.75
391.99	393.05
392.053	405.1
392.115	376.98
392.178	384.44
392.241	407.97
392.304	374.68
392.366	411.42
392.429	432.65
392.492	391.9
392.554	372.96
392.617	403.95
392.68	411.99
392.742	375.83
392.805	369.51
392.867	410.27
392.93	384.44
392.992	405.68
393.055	380.42
393.118	382.14
393.18	389.6
393.243	393.62
393.305	395.92
393.368	433.8
393.43	395.92
393.493	391.33
393.555	364.35
393.618	350.57
393.68	376.4
393.742	358.61
393.805	389.6
393.867	383.29
393.93	368.94
393.992	387.88
394.054	367.79
394.117	430.93
394.179	380.99
394.241	362.05
394.304	357.46
394.366	399.94
394.428	374.11
394.49	363.77
394.553	405.1
394.615	362.05
394.677	372.96
394.739	355.16
394.802	386.73
394.864	380.99
394.926	383.86
394.988	398.79
395.05	377.55
395.112	402.81
395.174	380.99
395.237	390.18
395.299	374.11
395.361	371.24
395.423	385.01
395.485	361.48
395.547	382.14
395.609	352.29
395.671	402.81
395.733	403.38
395.795	375.83
395.857	385.01
395.919	383.86
395.981	396.49
396.043	366.07
396.105	373.53
396.167	341.39
396.229	398.21
396.291	376.4
396.352	378.12
396.414	402.81
396.476	395.34
396.538	375.83
396.6	415.43
396.662	405.1
396.724	396.49
396.785	381.57
396.847	383.29
396.909	371.24
396.971	387.31
397.032	348.85
397.094	376.98
397.156	399.94
397.218	364.35
397.279	362.63
397.341	375.25
397.403	379.27
397.464	375.25
397.526	394.77
397.588	401.66
397.649	388.46
397.711	408.55
397.772	375.25
397.834	443.56
397.896	390.18
397.957	378.7
398.019	379.27
398.08	356.89
398.142	383.86
398.203	371.81
398.265	351.15
398.326	395.92
398.388	361.48
398.449	371.81
398.511	440.69
398.572	397.64
398.633	378.12
398.695	364.35
398.756	408.55
398.818	344.26
398.879	420.03
398.94	383.86
399.002	366.64
399.063	421.17
399.124	383.29
399.186	434.95
399.247	338.52
399.308	442.99
399.369	387.88
399.431	385.59
399.492	394.2
399.553	364.35
399.614	369.51
399.676	357.46
399.737	417.73
399.798	405.1
399.859	391.33
399.92	381.57
399.981	345.98
400.042	397.64
400.104	403.38
400.165	421.75
400.226	390.75
400.287	381.57
400.348	370.09
400.409	385.59
400.47	371.24
400.531	371.24
400.592	366.07
400.653	346.55
400.714	360.33
400.775	378.7
400.836	382.72
400.897	391.9
400.958	379.85
401.019	390.18
401.08	345.98
401.141	371.81
401.201	386.16
401.262	393.05
401.323	368.94
401.384	372.38
401.445	383.29
401.506	385.59
401.567	400.51
401.627	401.66
401.688	386.73
401.749	336.8
401.81	378.7
401.87	379.85
401.931	414.29
401.992	364.35
402.053	398.79
402.113	413.14
402.174	429.78
402.235	374.68
402.295	371.81
402.356	352.87
402.417	437.25
402.477	384.44
402.538	383.86
402.598	414.29
402.659	407.97
402.719	341.96
402.78	375.83
402.841	445.86
402.901	416.01
402.962	391.33
403.022	378.7
403.083	359.76
403.143	355.74
403.204	364.92
403.264	339.09
403.324	376.98
403.385	382.72
403.445	327.04
403.506	367.22
403.566	392.47
403.627	409.69
403.687	359.18
403.747	416.01
403.808	352.29
403.868	371.81
403.928	395.92
403.989	397.64
404.049	372.38
404.109	390.75
404.169	392.47
404.23	388.46
404.29	345.98
404.35	373.53
404.41	409.69
404.47	400.51
404.531	368.37
404.591	418.88
404.651	843.07
404.711	410.27
404.771	419.45
404.831	358.61
404.892	374.68
404.952	402.81
405.012	382.14
405.072	396.49
405.132	375.25
405.192	403.95
405.252	368.94
405.312	366.64
405.372	396.49
405.432	355.16
405.492	372.38
405.552	402.81
405.612	346.55
405.672	418.3
405.732	344.83
405.792	364.35
405.852	364.35
405.912	368.37
405.971	391.9
406.031	374.68
406.091	365.5
406.151	391.33
406.211	380.99
406.271	433.23
406.33	374.68
406.39	348.85
406.45	364.92
406.51	369.51
406.57	322.45
406.629	365.5
406.689	371.24
406.749	375.25
406.808	354.59
406.868	348.28
406.928	391.9
406.988	362.63
407.047	378.12
407.107	394.2
407.166	392.47
407.226	318.43
407.286	358.03
407.345	395.92
407.405	355.16
407.464	339.09
407.524	363.2
407.584	397.07
407.643	363.2
407.703	333.93
407.762	375.83
407.822	383.86
407.881	367.22
407.941	397.64
408	370.09
408.059	378.7
408.119	381.57
408.178	351.15
408.238	399.94
408.297	366.07
408.356	392.47
408.416	353.44
408.475	368.37
408.535	382.14
408.594	376.98
408.653	369.51
408.712	385.59
408.772	403.38
408.831	362.05
408.89	374.68
408.95	369.51
409.009	362.05
409.068	335.65
409.127	399.36
409.186	370.66
409.246	358.03
409.305	375.25
409.364	394.77
409.423	340.81
409.482	410.27
409.541	373.53
409.6	343.68
409.66	406.25
409.719	364.35
409.778	385.59
409.837	382.14
409.896	345.98
409.955	322.45
410.014	383.29
410.073	445.28
410.132	387.31
410.191	376.98
410.25	382.72
410.309	359.18
410.368	370.66
410.427	358.03
410.486	359.76
410.545	357.46
410.603	368.37
410.662	366.07
410.721	369.51
410.78	397.64
410.839	360.9
410.898	370.09
410.957	399.94
411.015	363.77
411.074	355.16
411.133	378.7
411.192	358.03
411.25	393.62
411.309	384.44
411.368	366.64
411.427	341.39
411.485	368.94
411.544	385.01
411.603	355.16
411.661	342.54
411.72	386.16
411.779	447
411.837	412.56
411.896	358.03
411.955	386.16
412.013	373.53
412.072	398.79
412.13	399.94
412.189	372.38
412.247	368.37
412.306	367.79
412.364	391.33
412.423	341.39
412.481	378.7
412.54	371.24
412.598	346.55
412.657	380.42
412.715	379.27
412.774	331.06
412.832	376.4
412.891	425.77
412.949	392.47
413.007	393.62
413.066	418.88
413.124	331.63
413.182	367.79
413.241	370.66
413.299	367.22
413.357	378.12
413.416	384.44
413.474	355.74
413.532	391.9
413.59	354.59
413.649	395.34
413.707	362.05
413.765	406.82
413.823	396.49
413.881	363.2
413.94	366.64
413.998	369.51
414.056	360.9
414.114	380.42
414.172	334.5
414.23	379.27
414.288	385.59
414.347	338.52
414.405	358.03
414.463	403.38
414.521	350
414.579	413.14
414.637	350
414.695	387.88
414.753	359.18
414.811	380.99
414.869	374.11
414.927	366.64
414.985	410.84
415.043	388.46
415.101	422.32
415.158	338.52
415.216	352.29
415.274	368.94
415.332	356.89
415.39	379.85
415.448	359.76
415.506	376.4
415.563	358.61
415.621	375.83
415.679	389.6
415.737	351.72
415.795	398.21
415.852	360.33
415.91	363.2
415.968	369.51
416.026	355.74
416.083	397.07
416.141	370.66
416.199	359.76
416.256	359.18
416.314	366.64
416.372	360.9
416.429	383.29
416.487	403.38
416.544	368.94
416.602	352.29
416.66	350
416.717	353.44
416.775	330.48
416.832	344.83
416.89	387.88
416.947	379.27
417.005	370.66
417.062	314.98
417.12	334.5
417.177	344.26
417.235	344.26
417.292	338.52
417.35	385.01
417.407	385.59
417.464	368.94
417.522	360.33
417.579	359.76
417.637	395.92
417.694	345.41
417.751	376.4
417.809	377.55
417.866	335.07
417.923	380.42
417.981	360.9
418.038	392.47
418.095	366.64
418.152	382.14
418.21	370.09
418.267	354.02
418.324	358.61
418.381	359.18
418.438	351.15
418.496	357.46
418.553	366.64
418.61	371.24
418.667	377.55
418.724	385.01
418.781	367.79
418.838	332.2
418.895	393.05
418.952	386.73
419.01	341.39
419.067	364.92
419.124	359.18
419.181	371.24
419.238	351.72
419.295	361.48
419.352	338.52
419.409	333.35
419.466	359.76
419.523	363.77
419.579	390.75
419.636	380.42
419.693	372.38
419.75	366.07
419.807	376.98
419.864	391.9
419.921	356.31
419.978	371.81
420.034	340.81
420.091	381.57
420.148	401.66
420.205	381.57
420.262	352.29
420.318	359.76
420.375	351.15
420.432	371.81
420.489	349.42
420.545	367.22
420.602	331.06
420.659	356.89
420.715	394.2
420.772	360.33
420.829	383.29
420.885	371.81
420.942	428.64
420.999	329.91
421.055	344.26
421.112	351.15
421.168	396.49
421.225	388.46
421.282	388.46
421.338	382.14
421.395	374.11
421.451	374.68
421.508	420.6
421.564	382.72
421.621	394.2
421.677	328.19
421.734	361.48
421.79	356.89
421.846	370.09
421.903	380.42
421.959	365.5
422.016	362.05
422.072	386.73
422.128	359.76
422.185	375.83
422.241	350.57
422.297	350
422.354	374.68
422.41	370.66
422.466	341.39
422.523	398.79
422.579	352.87
422.635	356.31
422.691	347.7
422.748	354.02
422.804	324.17
422.86	462.5
422.916	390.75
422.972	348.28
423.029	367.79
423.085	363.2
423.141	371.24
423.197	403.38
423.253	372.96
423.309	394.2
423.365	414.29
423.421	345.41
423.477	342.54
423.533	365.5
423.589	378.7
423.645	343.68
423.701	349.42
423.757	358.03
423.813	378.12
423.869	330.48
423.925	335.65
423.981	356.89
424.037	385.59
424.093	362.63
424.149	369.51
424.205	387.88
424.261	387.31
424.317	350
424.373	385.59
424.428	410.84
424.484	375.83
424.54	361.48
424.596	383.86
424.652	364.92
424.708	376.4
424.763	347.13
424.819	382.14
424.875	347.7
424.931	335.07
424.986	369.51
425.042	375.25
425.098	436.67
425.153	383.86
425.209	363.2
425.265	380.99
425.32	367.79
425.376	385.59
425.432	382.14
425.487	403.38
425.543	370.66
425.598	366.07
425.654	352.87
425.709	356.31
425.765	335.07
425.82	379.27
425.876	352.87
425.932	362.63
425.987	376.4
426.042	379.85
426.098	398.21
426.153	388.46
426.209	399.36
426.264	335.07
426.32	356.31
426.375	365.5
426.43	362.05
426.486	364.35
426.541	389.03
426.597	414.86
426.652	389.03
426.707	399.36
426.763	399.36
426.818	344.26
426.873	375.25
426.928	373.53
426.984	364.92
427.039	391.33
427.094	401.66
427.149	346.55
427.205	351.72
427.26	395.34
427.315	400.51
427.37	354.02
427.425	307.52
427.48	320.15
427.536	352.29
427.591	340.24
427.646	416.01
427.701	366.07
427.756	365.5
427.811	364.92
427.866	364.35
427.921	408.55
427.976	379.27
428.031	325.89
428.086	328.19
428.141	368.94
428.196	384.44
428.251	375.25
428.306	381.57
428.361	366.07
428.416	373.53
428.471	362.05
428.526	350
428.581	369.51
428.636	375.83
428.691	361.48
428.745	347.13
428.8	336.8
428.855	386.16
428.91	356.89
428.965	367.22
429.02	371.24
429.074	343.68
429.129	372.38
429.184	396.49
429.239	345.98
429.293	350
429.348	354.59
429.403	378.7
429.457	355.74
429.512	361.48
429.567	391.33
429.621	360.9
429.676	368.37
429.731	367.22
429.785	378.12
429.84	366.07
429.895	363.77
429.949	406.82
430.004	347.7
430.058	363.2
430.113	325.32
430.167	345.98
430.222	370.66
430.276	348.28
430.331	376.98
430.385	394.77
430.44	364.92
430.494	376.98
430.549	375.83
430.603	390.75
430.657	364.92
430.712	358.03
430.766	346.55
430.821	363.2
430.875	339.67
430.929	344.26
430.984	364.92
431.038	408.55
431.092	368.37
431.147	353.44
431.201	391.33
431.255	393.05
431.309	358.03
431.364	366.64
431.418	382.72
431.472	343.11
431.526	360.33
431.581	382.14
431.635	382.72
431.689	390.18
431.743	331.06
431.797	341.39
431.851	343.68
431.906	335.65
431.96	364.35
432.014	372.38
432.068	355.74
432.122	335.07
432.176	355.16
432.23	380.99
432.284	343.11
432.338	379.85
432.392	378.7
432.446	357.46
432.5	379.85
432.554	375.83
432.608	370.66
432.662	414.29
432.716	381.57
432.77	382.72
432.824	365.5
432.878	336.22
432.931	354.02
432.985	379.85
433.039	332.2
433.093	350
433.147	371.81
433.201	378.7
433.254	358.61
433.308	362.05
433.362	379.85
433.416	422.32
433.47	378.7
433.523	373.53
433.577	369.51
433.631	358.61
433.684	352.29
433.738	335.65
433.792	356.31
433.846	369.51
433.899	383.29
433.953	337.94
434.006	352.87
434.06	336.8
434.114	393.62
434.167	393.62
434.221	393.62
