Data from FLMS155811_13-06-45-397.txt Node
Date: Wed Mar 25 13:06:45 MDT 2020
User: ECEn Student
Spectrometer: FLMS15581
Trigger mode: 0
Integration Time (sec): 1.000000E-1
Scans to average: 1
Electric dark correction enabled: true
Nonlinearity correction enabled: false
Boxcar width: 0
XAxis mode: Wavelengths
Number of Pixels in Spectrum: 2048
>>>>>Begin Spectral Data<<<<<
298.026	39.46
298.106	39.46
298.185	39.46
298.265	-31.71
298.344	-47.79
298.424	-52.38
298.503	-93.71
298.583	-38.6
298.662	-36.31
298.741	-73.04
298.821	-29.42
298.9	14.21
298.98	41.76
299.059	-6.46
299.138	-6.46
299.217	0.43
299.297	37.17
299.376	-40.9
299.455	80.79
299.535	67.01
299.614	135.9
299.693	168.04
299.772	124.42
299.852	133.6
299.931	250.7
300.01	197.89
300.089	200.18
300.168	275.95
300.247	239.22
300.327	278.25
300.406	349.42
300.485	252.99
300.564	296.62
300.643	319.58
300.722	374.68
300.801	328.76
300.88	354.02
300.959	356.31
301.038	395.34
301.117	363.2
301.196	418.3
301.275	386.16
301.354	432.08
301.433	402.23
301.512	409.12
301.591	422.9
301.67	461.93
301.749	425.19
301.828	358.61
301.907	413.71
301.985	420.6
302.064	328.76
302.143	461.93
302.222	448.15
302.301	388.46
302.38	344.83
302.458	468.82
302.537	356.31
302.616	376.98
302.695	314.98
302.773	418.3
302.852	416.01
302.931	349.42
303.01	370.09
303.088	319.58
303.167	395.34
303.246	411.42
303.324	388.46
303.403	393.05
303.481	354.02
303.56	370.09
303.639	358.61
303.717	365.5
303.796	445.86
303.874	450.45
303.953	360.9
304.032	374.68
304.11	344.83
304.189	335.65
304.267	402.23
304.346	393.05
304.424	386.16
304.502	376.98
304.581	376.98
304.659	395.34
304.738	390.75
304.816	438.97
304.895	379.27
304.973	411.42
305.051	319.58
305.13	381.57
305.208	395.34
305.286	434.38
305.365	363.2
305.443	358.61
305.521	354.02
305.6	360.9
305.678	374.68
305.756	312.69
305.834	374.68
305.913	418.3
305.991	342.54
306.069	441.26
306.147	420.6
306.225	354.02
306.304	418.3
306.382	333.35
306.46	383.86
306.538	418.3
306.616	367.79
306.694	331.06
306.772	370.09
306.85	399.94
306.929	326.46
307.007	420.6
307.085	305.8
307.163	388.46
307.241	427.49
307.319	308.1
307.397	418.3
307.475	411.42
307.553	365.5
307.631	432.08
307.709	340.24
307.786	381.57
307.864	321.87
307.942	381.57
308.02	383.86
308.098	319.58
308.176	349.42
308.254	425.19
308.332	404.53
308.409	381.57
308.487	363.2
308.565	365.5
308.643	374.68
308.721	429.78
308.798	363.2
308.876	381.57
308.954	413.71
309.032	409.12
309.109	354.02
309.187	404.53
309.265	395.34
309.342	374.68
309.42	399.94
309.498	349.42
309.575	370.09
309.653	393.05
309.731	321.87
309.808	363.2
309.886	402.23
309.963	448.15
310.041	372.38
310.119	365.5
310.196	363.2
310.274	390.75
310.351	395.34
310.429	386.16
310.506	404.53
310.584	404.53
310.661	418.3
310.738	406.82
310.816	434.38
310.893	342.54
310.971	365.5
311.048	321.87
311.126	383.86
311.203	360.9
311.28	448.15
311.358	395.34
311.435	360.9
311.512	372.38
311.59	416.01
311.667	354.02
311.744	388.46
311.821	379.27
311.899	376.98
311.976	379.27
312.053	418.3
312.13	411.42
312.208	484.89
312.285	397.64
312.362	393.05
312.439	349.42
312.516	422.9
312.593	418.3
312.671	420.6
312.748	367.79
312.825	347.13
312.902	374.68
312.979	418.3
313.056	427.49
313.133	443.56
313.21	468.82
313.287	340.24
313.364	418.3
313.441	409.12
313.518	370.09
313.595	393.05
313.672	434.38
313.749	409.12
313.826	464.22
313.903	374.68
313.98	445.86
314.057	370.09
314.134	381.57
314.211	459.63
314.287	413.71
314.364	381.57
314.441	360.9
314.518	367.79
314.595	388.46
314.672	402.23
314.748	432.08
314.825	393.05
314.902	356.31
314.979	402.23
315.055	418.3
315.132	356.31
315.209	404.53
315.286	404.53
315.362	390.75
315.439	363.2
315.516	386.16
315.592	365.5
315.669	434.38
315.746	381.57
315.822	340.24
315.899	448.15
315.975	413.71
316.052	452.74
316.128	413.71
316.205	434.38
316.282	363.2
316.358	402.23
316.435	370.09
316.511	429.78
316.588	397.64
316.664	344.83
316.741	422.9
316.817	370.09
316.893	399.94
316.97	411.42
317.046	367.79
317.123	420.6
317.199	379.27
317.275	450.45
317.352	409.12
317.428	347.13
317.504	390.75
317.581	438.97
317.657	457.34
317.733	376.98
317.81	445.86
317.886	413.71
317.962	399.94
318.038	390.75
318.115	324.17
318.191	386.16
318.267	319.58
318.343	445.86
318.419	390.75
318.496	333.35
318.572	416.01
318.648	381.57
318.724	422.9
318.8	386.16
318.876	420.6
318.952	406.82
319.028	404.53
319.105	420.6
319.181	466.52
319.257	450.45
319.333	406.82
319.409	393.05
319.485	404.53
319.561	445.86
319.637	393.05
319.713	388.46
319.789	386.16
319.865	429.78
319.94	395.34
320.016	427.49
320.092	374.68
320.168	411.42
320.244	436.67
320.32	461.93
320.396	413.71
320.472	349.42
320.547	376.98
320.623	459.63
320.699	434.38
320.775	461.93
320.851	374.68
320.926	397.64
321.002	438.97
321.078	471.11
321.154	425.19
321.229	409.12
321.305	360.9
321.381	404.53
321.456	383.86
321.532	434.38
321.608	468.82
321.683	475.7
321.759	370.09
321.835	399.94
321.91	406.82
321.986	429.78
322.061	427.49
322.137	448.15
322.212	422.9
322.288	388.46
322.364	468.82
322.439	505.55
322.515	427.49
322.59	351.72
322.666	402.23
322.741	457.34
322.816	406.82
322.892	422.9
322.967	406.82
323.043	422.9
323.118	367.79
323.193	388.46
323.269	416.01
323.344	443.56
323.42	425.19
323.495	429.78
323.57	411.42
323.646	347.13
323.721	425.19
323.796	383.86
323.871	354.02
323.947	418.3
324.022	445.86
324.097	416.01
324.172	399.94
324.248	441.26
324.323	399.94
324.398	441.26
324.473	397.64
324.548	409.12
324.623	429.78
324.699	404.53
324.774	370.09
324.849	416.01
324.924	413.71
324.999	432.08
325.074	379.27
325.149	448.15
325.224	420.6
325.299	383.86
325.374	457.34
325.449	425.19
325.524	422.9
325.599	427.49
325.674	450.45
325.749	409.12
325.824	397.64
325.899	383.86
325.974	445.86
326.049	402.23
326.124	395.34
326.199	370.09
326.273	464.22
326.348	404.53
326.423	436.67
326.498	402.23
326.573	379.27
326.648	432.08
326.722	379.27
326.797	372.38
326.872	354.02
326.947	365.5
327.021	388.46
327.096	475.7
327.171	354.02
327.245	413.71
327.32	432.08
327.395	420.6
327.47	399.94
327.544	455.04
327.619	360.9
327.693	457.34
327.768	455.04
327.843	390.75
327.917	468.82
327.992	397.64
328.066	445.86
328.141	404.53
328.215	487.18
328.29	438.97
328.364	448.15
328.439	427.49
328.513	393.05
328.588	383.86
328.662	363.2
328.737	404.53
328.811	386.16
328.886	386.16
328.96	409.12
329.035	432.08
329.109	448.15
329.183	448.15
329.258	402.23
329.332	340.24
329.406	452.74
329.481	445.86
329.555	464.22
329.629	455.04
329.704	480.3
329.778	370.09
329.852	432.08
329.926	422.9
330.001	427.49
330.075	494.07
330.149	480.3
330.223	416.01
330.297	370.09
330.372	436.67
330.446	399.94
330.52	383.86
330.594	420.6
330.668	461.93
330.742	427.49
330.816	432.08
330.89	399.94
330.964	399.94
331.038	411.42
331.113	404.53
331.187	402.23
331.261	390.75
331.335	455.04
331.409	381.57
331.483	429.78
331.557	376.98
331.63	390.75
331.704	363.2
331.778	459.63
331.852	436.67
331.926	429.78
332	445.86
332.074	390.75
332.148	374.68
332.222	450.45
332.295	482.59
332.369	331.06
332.443	381.57
332.517	399.94
332.591	471.11
332.665	436.67
332.738	429.78
332.812	441.26
332.886	331.06
332.959	494.07
333.033	395.34
333.107	432.08
333.181	429.78
333.254	434.38
333.328	404.53
333.402	434.38
333.475	406.82
333.549	404.53
333.622	411.42
333.696	379.27
333.77	425.19
333.843	393.05
333.917	443.56
333.99	390.75
334.064	429.78
334.137	416.01
334.211	496.37
334.284	443.56
334.358	413.71
334.431	459.63
334.505	374.68
334.578	351.72
334.652	379.27
334.725	471.11
334.799	434.38
334.872	395.34
334.945	416.01
335.019	438.97
335.092	416.01
335.165	434.38
335.239	429.78
335.312	370.09
335.385	386.16
335.459	388.46
335.532	370.09
335.605	445.86
335.678	416.01
335.752	416.01
335.825	383.86
335.898	475.7
335.971	404.53
336.045	406.82
336.118	393.05
336.191	422.9
336.264	413.71
336.337	383.86
336.41	452.74
336.483	386.16
336.557	406.82
336.63	438.97
336.703	422.9
336.776	416.01
336.849	379.27
336.922	452.74
336.995	468.82
337.068	438.97
337.141	443.56
337.214	475.7
337.287	397.64
337.36	406.82
337.433	340.24
337.506	448.15
337.579	459.63
337.652	411.42
337.725	406.82
337.797	461.93
337.87	413.71
337.943	388.46
338.016	367.79
338.089	379.27
338.162	393.05
338.235	475.7
338.307	416.01
338.38	434.38
338.453	365.5
338.526	413.71
338.598	395.34
338.671	402.23
338.744	443.56
338.817	372.38
338.889	429.78
338.962	416.01
339.035	445.86
339.107	466.52
339.18	441.26
339.253	455.04
339.325	448.15
339.398	432.08
339.47	418.3
339.543	443.56
339.616	514.74
339.688	450.45
339.761	448.15
339.833	436.67
339.906	443.56
339.978	393.05
340.051	388.46
340.123	413.71
340.196	432.08
340.268	425.19
340.341	459.63
340.413	402.23
340.485	498.66
340.558	379.27
340.63	471.11
340.703	388.46
340.775	468.82
340.847	388.46
340.92	406.82
340.992	434.38
341.064	406.82
341.137	420.6
341.209	416.01
341.281	438.97
341.354	420.6
341.426	475.7
341.498	478
341.57	379.27
341.643	399.94
341.715	386.16
341.787	436.67
341.859	406.82
341.931	434.38
342.003	455.04
342.076	452.74
342.148	459.63
342.22	429.78
342.292	461.93
342.364	496.37
342.436	379.27
342.508	388.46
342.58	395.34
342.652	471.11
342.724	475.7
342.796	443.56
342.868	457.34
342.94	452.74
343.012	484.89
343.084	390.75
343.156	448.15
343.228	422.9
343.3	370.09
343.372	500.96
343.444	399.94
343.516	468.82
343.588	471.11
343.66	425.19
343.731	432.08
343.803	404.53
343.875	443.56
343.947	452.74
344.019	393.05
344.09	452.74
344.162	351.72
344.234	406.82
344.306	466.52
344.377	459.63
344.449	356.31
344.521	429.78
344.593	420.6
344.664	459.63
344.736	411.42
344.808	381.57
344.879	399.94
344.951	487.18
345.023	393.05
345.094	468.82
345.166	500.96
345.237	464.22
345.309	406.82
345.38	468.82
345.452	406.82
345.524	395.34
345.595	427.49
345.667	452.74
345.738	416.01
345.81	466.52
345.881	411.42
345.953	395.34
346.024	420.6
346.095	425.19
346.167	436.67
346.238	445.86
346.31	388.46
346.381	376.98
346.452	429.78
346.524	436.67
346.595	422.9
346.666	429.78
346.738	438.97
346.809	404.53
346.88	459.63
346.952	438.97
347.023	390.75
347.094	413.71
347.165	411.42
347.237	397.64
347.308	404.53
347.379	505.55
347.45	457.34
347.521	468.82
347.593	452.74
347.664	420.6
347.735	466.52
347.806	459.63
347.877	452.74
347.948	411.42
348.019	432.08
348.09	427.49
348.161	443.56
348.233	425.19
348.304	358.61
348.375	471.11
348.446	427.49
348.517	425.19
348.588	457.34
348.659	443.56
348.73	489.48
348.801	455.04
348.871	425.19
348.942	445.86
349.013	393.05
349.084	434.38
349.155	478
349.226	471.11
349.297	427.49
349.368	432.08
349.439	438.97
349.509	480.3
349.58	452.74
349.651	445.86
349.722	402.23
349.793	422.9
349.863	475.7
349.934	489.48
350.005	464.22
350.076	432.08
350.146	411.42
350.217	427.49
350.288	452.74
350.358	459.63
350.429	471.11
350.5	445.86
350.57	487.18
350.641	434.38
350.711	521.62
350.782	429.78
350.853	436.67
350.923	406.82
350.994	393.05
351.064	418.3
351.135	413.71
351.205	459.63
351.276	457.34
351.346	496.37
351.417	395.34
351.487	448.15
351.558	466.52
351.628	482.59
351.699	448.15
351.769	434.38
351.84	358.61
351.91	436.67
351.98	455.04
352.051	399.94
352.121	461.93
352.191	507.85
352.262	422.9
352.332	491.78
352.402	445.86
352.473	448.15
352.543	434.38
352.613	443.56
352.683	459.63
352.754	510.14
352.824	478
352.894	416.01
352.964	498.66
353.035	461.93
353.105	418.3
353.175	494.07
353.245	461.93
353.315	448.15
353.385	475.7
353.455	468.82
353.526	427.49
353.596	448.15
353.666	427.49
353.736	445.86
353.806	429.78
353.876	510.14
353.946	436.67
354.016	482.59
354.086	473.41
354.156	455.04
354.226	482.59
354.296	473.41
354.366	505.55
354.436	468.82
354.506	482.59
354.576	496.37
354.645	500.96
354.715	448.15
354.785	443.56
354.855	450.45
354.925	489.48
354.995	514.74
355.065	533.1
355.134	434.38
355.204	494.07
355.274	517.03
355.344	489.48
355.414	489.48
355.483	489.48
355.553	450.45
355.623	480.3
355.693	507.85
355.762	480.3
355.832	471.11
355.902	503.26
355.971	521.62
356.041	406.82
356.111	461.93
356.18	475.7
356.25	432.08
356.319	496.37
356.389	475.7
356.459	402.23
356.528	441.26
356.598	434.38
356.667	480.3
356.737	445.86
356.806	533.1
356.876	526.22
356.945	411.42
357.015	471.11
357.084	496.37
357.154	434.38
357.223	480.3
357.292	459.63
357.362	535.4
357.431	512.44
357.501	484.89
357.57	434.38
357.639	466.52
357.709	526.22
357.778	468.82
357.847	441.26
357.917	416.01
357.986	455.04
358.055	425.19
358.124	475.7
358.194	484.89
358.263	438.97
358.332	478
358.401	443.56
358.471	413.71
358.54	459.63
358.609	468.82
358.678	475.7
358.747	461.93
358.816	461.93
358.886	471.11
358.955	530.81
359.024	500.96
359.093	452.74
359.162	507.85
359.231	503.26
359.3	487.18
359.369	482.59
359.438	517.03
359.507	484.89
359.576	413.71
359.645	466.52
359.714	523.92
359.783	429.78
359.852	601.98
359.921	438.97
359.99	436.67
360.059	461.93
360.128	441.26
360.197	473.41
360.266	523.92
360.334	450.45
360.403	530.81
360.472	475.7
360.541	436.67
360.61	480.3
360.679	494.07
360.747	533.1
360.816	523.92
360.885	445.86
360.954	494.07
361.022	519.33
361.091	530.81
361.16	503.26
361.228	473.41
361.297	482.59
361.366	533.1
361.434	510.14
361.503	505.55
361.572	464.22
361.64	500.96
361.709	461.93
361.778	496.37
361.846	425.19
361.915	487.18
361.983	528.51
362.052	494.07
362.12	494.07
362.189	443.56
362.257	503.26
362.326	542.29
362.394	560.66
362.463	537.7
362.531	530.81
362.6	542.29
362.668	535.4
362.737	489.48
362.805	505.55
362.873	500.96
362.942	599.69
363.01	549.18
363.079	530.81
363.147	498.66
363.215	533.1
363.284	539.99
363.352	546.88
363.42	569.84
363.488	539.99
363.557	503.26
363.625	574.43
363.693	565.25
363.761	572.14
363.83	583.62
363.898	597.39
363.966	542.29
364.034	546.88
364.102	553.77
364.171	556.06
364.239	604.28
364.307	599.69
364.375	638.72
364.443	627.24
364.511	537.7
364.579	680.05
364.647	599.69
364.715	629.54
364.783	663.98
364.851	675.46
364.919	682.35
364.987	673.16
365.055	762.71
365.123	723.67
365.191	744.34
365.259	732.86
365.327	792.55
365.395	870.62
365.463	753.52
365.531	820.11
365.599	771.89
365.667	833.88
365.735	900.47
365.802	893.58
365.87	884.39
365.938	934.91
366.006	914.24
366.074	944.09
366.142	939.5
366.209	976.23
366.277	964.75
366.345	1015.27
366.413	987.71
366.48	1049.71
366.548	1072.67
366.616	1063.48
366.683	1084.15
366.751	1162.21
366.819	1164.51
366.886	1079.55
366.954	1235.68
367.022	1251.76
367.089	1309.16
367.157	1281.6
367.224	1304.56
367.292	1313.75
367.36	1412.48
367.427	1502.02
367.495	1446.92
367.562	1440.03
367.63	1596.16
367.697	1603.05
367.765	1612.23
367.832	1685.7
367.9	1740.81
367.967	1809.69
368.034	1763.77
368.102	1846.42
368.169	1910.71
368.237	1892.34
368.304	2032.4
368.371	2046.17
368.439	2004.85
368.506	2138.02
368.573	2170.16
368.641	2216.08
368.708	2379.1
368.775	2330.88
368.843	2323.99
368.91	2422.72
368.977	2496.19
369.044	2528.34
369.112	2489.3
369.179	2721.2
369.246	2581.15
369.313	2774.01
369.38	2803.86
369.448	2909.47
369.515	2964.58
369.582	3093.16
369.649	3217.14
369.716	3226.32
369.783	3159.74
369.85	3421.48
369.917	3279.13
369.984	3469.7
370.052	3524.81
370.119	3657.97
370.186	3724.56
370.253	3671.75
370.32	3811.81
370.387	3963.34
370.454	3942.68
370.521	4133.25
370.587	4156.21
370.654	4066.66
370.721	4362.85
370.788	4310.04
370.855	4337.59
370.922	4505.2
370.989	4762.35
371.056	4810.57
371.123	4810.57
371.189	4764.65
371.256	5047.06
371.323	5166.45
371.39	5097.57
371.457	5313.4
371.523	5455.75
371.59	5373.09
371.657	5648.61
371.724	5981.54
371.79	5850.66
371.857	6036.64
371.924	6224.91
371.991	6275.42
372.057	6348.9
372.124	6472.88
372.191	6523.39
372.257	6773.66
372.324	6876.98
372.39	6996.37
372.457	7076.73
372.524	7216.79
372.59	7338.48
372.657	7577.26
372.723	7586.45
372.79	7889.52
372.856	8022.69
372.923	8057.13
372.989	8475
373.056	8608.17
373.122	8750.52
373.189	8734.45
373.255	9003.08
373.322	9267.12
373.388	9228.09
373.454	9340.6
373.521	9517.39
373.587	9682.7
373.654	9903.12
373.72	10052.36
373.786	10233.74
373.853	10403.65
373.919	10757.24
373.985	10821.52
374.052	11163.63
374.118	11257.77
374.184	11622.83
374.25	11785.85
374.317	12084.33
374.383	12196.83
374.449	12476.95
374.515	12293.27
374.581	12635.37
374.648	12963.7
374.714	13374.69
374.78	13386.17
374.846	13569.85
374.912	13895.88
374.978	14088.74
375.044	14343.6
375.11	14676.52
375.177	14763.77
375.243	15358.44
375.309	15620.18
375.375	15792.38
375.441	15946.22
375.507	16100.05
375.573	16713.08
375.639	16591.4
375.705	17261.83
375.771	17599.34
375.837	17824.35
375.903	17858.79
375.968	18194.01
376.034	18336.36
376.1	18866.74
376.166	19263.95
376.232	19195.07
376.298	19904.54
376.364	19984.9
376.43	20212.2
376.495	20646.15
376.561	20868.86
376.627	21277.55
376.693	21828.59
376.759	22285.5
376.824	22632.2
376.89	22972.01
376.956	23562.08
377.022	23888.11
377.087	24333.54
377.153	24106.23
377.219	24721.57
377.284	25127.96
377.35	26057.84
377.416	26487.2
377.481	26643.33
377.547	26822.41
377.613	27412.49
377.678	27697.19
377.744	28427.32
377.809	28808.46
377.875	29274.55
377.94	29517.93
378.006	29977.13
378.071	30466.18
378.137	30642.97
378.202	31910.37
378.268	32472.89
378.333	32886.17
378.399	33542.83
378.464	33632.38
378.53	34472.72
378.595	34504.86
378.661	35244.18
378.726	36036.3
378.791	36054.67
378.857	37255.48
378.922	37225.63
378.987	38348.38
379.053	38651.45
379.118	39441.28
379.183	39827.01
379.249	40834.96
379.314	41034.71
379.379	41686.78
379.444	42297.52
379.51	42765.9
379.575	43815.18
379.64	44301.93
379.705	44761.14
379.771	45176.71
379.836	45723.16
379.901	46375.23
379.966	47059.44
380.031	47178.83
380.096	48379.65
380.161	48675.83
380.227	49222.28
380.292	50028.18
380.357	50133.8
380.422	50925.92
380.487	51681.31
380.552	51885.65
380.617	52250.72
380.682	52951
380.747	53173.72
380.812	53403.32
380.877	53538.78
380.942	53963.54
381.007	54200.03
381.072	54314.83
381.137	55086.29
381.202	55697.03
381.266	55609.78
381.331	56160.82
381.396	56245.78
381.461	56415.68
381.526	56316.95
381.591	56567.22
381.656	56626.91
381.72	56939.17
381.785	56835.85
381.85	57315.72
381.915	57678.49
381.979	57749.66
382.044	57914.97
382.109	57506.29
382.174	57832.32
382.238	58151.46
382.303	57706.04
382.368	57898.9
382.432	57924.16
382.497	57912.68
382.562	57818.54
382.626	57990.74
382.691	58045.85
382.756	57751.96
382.82	57983.86
382.885	58002.22
382.949	57669.3
383.014	57329.49
383.078	57467.25
383.143	57313.42
383.208	57065.45
383.272	56640.69
383.337	56599.36
383.401	56112.61
383.465	56055.21
383.53	55742.95
383.594	55455.95
383.659	55274.56
383.723	54980.67
383.788	54673.01
383.852	53952.06
383.916	54156.41
383.981	54190.85
384.045	53442.35
384.109	53026.77
384.174	52712.22
384.238	51904.02
384.302	51701.97
384.367	51157.82
384.431	50599.89
384.495	50002.93
384.56	49038.6
384.624	48450.82
384.688	47346.44
384.752	47344.15
384.816	46012.46
384.881	45704.8
384.945	45158.35
385.009	44246.83
385.073	43590.17
385.137	43149.34
385.201	42559.26
385.265	41523.76
385.33	41420.44
385.394	40564.03
385.458	39801.76
385.522	38906.31
385.586	38621.61
385.65	37459.83
385.714	36461.06
385.778	36557.49
385.842	35912.32
385.906	35140.86
385.97	33967.6
386.034	33708.15
386.098	33040.01
386.162	32004.51
386.226	32004.51
386.29	31625.67
386.354	31026.41
386.417	30688.89
386.481	29807.23
386.545	29306.7
386.609	28852.09
386.673	28133.44
386.737	28167.88
386.8	27685.71
386.864	26742.05
386.928	26716.8
386.992	26347.14
387.056	25442.51
387.119	25587.16
387.183	24746.82
387.247	24804.22
387.31	24420.79
387.374	24055.72
387.438	23247.53
387.502	22983.49
387.565	22574.8
387.629	22673.52
387.692	22264.83
387.756	21635.73
387.82	21867.63
387.883	21677.06
387.947	21013.51
388.01	20859.68
388.074	20356.85
388.138	20134.14
388.201	19711.67
388.265	19651.98
388.328	19280.02
388.392	19020.57
388.455	19036.65
388.519	18848.37
388.582	18616.48
388.645	18421.31
388.709	17902.42
388.772	17877.16
388.836	18063.14
388.899	17631.49
388.962	17606.23
389.026	17502.91
389.089	17059.78
389.153	16995.49
389.216	16866.92
389.279	16772.78
389.343	16563.84
389.406	16522.52
389.469	16269.95
389.532	15989.84
389.596	16139.08
389.659	15861.26
389.722	15468.65
389.785	15392.88
389.848	15330.89
389.912	15395.17
389.975	15312.52
390.038	14853.32
390.101	14991.08
390.164	14995.67
390.227	14789.03
390.291	14389.52
390.354	14628.31
390.417	14357.38
390.48	14593.87
390.543	14398.71
390.606	14208.14
390.669	14130.07
390.732	14035.94
390.795	13967.06
390.858	13891.29
390.921	13498.67
390.984	13785.67
391.047	13608.88
391.11	13455.05
391.173	13142.79
391.236	13188.71
391.299	13402.24
391.362	12747.88
391.424	12851.2
391.487	12786.91
391.55	13002.73
391.613	12474.65
391.676	12718.03
391.739	12584.86
391.802	12465.47
391.864	12375.92
391.927	12125.66
391.99	11921.31
392.053	12056.78
392.115	11900.65
392.178	11475.89
392.241	11987.9
392.304	11680.23
392.366	11512.62
392.429	11241.69
392.492	10906.48
392.554	10959.28
392.617	10943.21
392.68	10754.94
392.742	10601.11
392.805	10607.99
392.867	10564.37
392.93	10410.54
392.992	10380.69
393.055	10146.5
393.118	10238.34
393.18	9967.41
393.243	10029.4
393.305	9912.3
393.368	9698.77
393.43	9652.85
393.493	9577.09
393.555	9411.77
393.618	9127.07
393.68	9012.27
393.742	8947.98
393.805	8899.76
393.867	8927.32
393.93	8702.31
393.992	8585.21
394.054	8704.6
394.117	8479.59
394.179	8346.43
394.241	8091.57
394.304	7967.58
394.366	7935.44
394.428	7758.65
394.49	7641.55
394.553	7708.13
394.615	7664.51
394.677	7400.47
394.739	7448.69
394.802	7212.2
394.864	7253.52
394.926	6938.97
394.988	6975.71
395.05	6840.24
395.112	6711.67
395.174	6571.61
395.237	6502.73
395.299	6433.85
395.361	6213.43
395.423	6213.43
395.485	6011.38
395.547	6110.11
395.609	5855.25
395.671	5873.62
395.733	5901.17
395.795	5708.31
395.857	5490.19
395.919	5464.93
395.981	5464.93
396.043	5469.53
396.105	5226.15
396.167	5175.64
396.229	5210.08
396.291	5030.99
396.352	4927.67
396.414	4943.74
396.476	4803.68
396.538	4677.4
396.6	4707.25
396.662	4574.08
396.724	4401.88
396.785	4470.76
396.847	4521.27
396.909	4496.02
396.971	4484.54
397.032	4264.12
397.094	4248.05
397.156	4117.18
397.218	4133.25
397.279	4048.3
397.341	3910.53
397.403	3958.75
397.464	3841.65
397.526	3882.98
397.588	3770.48
397.649	3687.82
397.711	3621.24
397.772	3630.42
397.834	3485.77
397.896	3485.77
397.957	3559.25
398.019	3437.56
398.08	3373.27
398.142	3380.16
398.203	3462.81
398.265	3366.38
398.326	3258.47
398.388	3226.32
398.449	3226.32
398.511	3217.14
398.572	3077.08
398.633	3141.37
398.695	3111.52
398.756	3033.46
398.818	3010.5
398.879	3005.91
398.94	2836
399.002	2833.71
399.063	2937.03
399.124	2787.79
399.186	2831.41
399.247	2943.91
399.308	2842.89
399.369	2732.68
399.431	2714.31
399.492	2689.06
399.553	2718.91
399.614	2686.76
399.676	2622.47
399.737	2581.15
399.798	2594.92
399.859	2633.95
399.92	2535.23
399.981	2480.12
400.042	2450.27
400.104	2452.57
400.165	2484.71
400.226	2496.19
400.287	2413.54
400.348	2434.2
400.409	2450.27
400.47	2507.67
400.531	2374.5
400.592	2351.54
400.653	2326.29
400.714	2291.85
400.775	2298.74
400.836	2369.91
400.897	2193.12
400.958	2344.66
401.019	2278.07
401.08	2271.18
401.141	2252.82
401.201	2213.78
401.262	2252.82
401.323	2082.91
401.384	2197.71
401.445	2142.61
401.506	2156.38
401.567	2170.16
401.627	2154.09
401.688	2036.99
401.749	2160.98
401.81	2098.98
401.87	2119.65
401.931	2126.54
401.992	2020.92
402.053	2041.58
402.113	2020.92
402.174	2085.21
402.235	2030.1
402.295	2059.95
402.356	2032.4
402.417	2000.25
402.477	2087.5
402.538	1876.27
402.598	1913.01
402.659	1991.07
402.719	1919.89
402.78	1995.66
402.841	1821.17
402.901	1922.19
402.962	1906.12
403.022	1848.72
403.083	1876.27
403.143	1867.09
403.204	1986.48
403.264	1795.91
403.324	1871.68
403.385	1798.21
403.445	1807.39
403.506	1802.8
403.566	1800.5
403.627	1717.85
403.687	1800.5
403.747	1786.73
403.808	1793.61
403.868	1793.61
403.928	1761.47
403.989	1816.57
404.049	1708.66
404.109	1720.14
404.169	1779.84
404.23	1699.48
404.29	1740.81
404.35	1637.49
404.41	1564.01
404.47	1713.25
404.531	1628.3
404.591	1639.78
404.651	1605.34
404.711	1678.81
404.771	1552.53
404.831	1596.16
404.892	1483.65
404.952	1502.02
405.012	1570.9
405.072	1513.5
405.132	1433.14
405.192	1479.06
405.252	1524.98
405.312	1430.84
405.372	1396.4
405.432	1476.76
405.492	1389.52
405.552	1518.09
405.612	1437.73
405.672	1513.5
405.732	1332.12
405.792	1417.07
405.852	1325.23
405.912	1355.08
405.971	1203.54
406.031	1265.53
406.091	1339
406.151	1426.25
406.211	1322.93
406.271	1247.16
406.33	1208.13
406.39	1240.28
406.45	1210.43
406.51	1251.76
406.57	1226.5
406.629	1244.87
406.689	1233.39
406.749	1235.68
406.808	1192.06
406.868	1249.46
406.928	1194.36
406.988	1182.88
407.047	1102.52
407.107	1180.58
407.166	1164.51
407.226	1118.59
407.286	1084.15
407.345	1100.22
407.405	1029.04
407.464	1074.96
407.524	1052
407.584	1068.07
407.643	1015.27
407.703	1003.79
407.762	1077.26
407.822	1042.82
407.881	1026.75
407.941	1001.49
408	976.23
408.059	1003.79
408.119	1065.78
408.178	973.94
408.238	980.83
408.297	1058.89
408.356	976.23
408.416	934.91
408.475	967.05
408.535	941.79
408.594	898.17
408.653	921.13
408.712	868.32
408.772	902.76
408.831	882.1
408.89	946.39
408.95	888.99
409.009	895.87
409.068	911.95
409.127	893.58
409.186	879.8
409.246	826.99
409.305	923.43
409.364	916.54
409.423	856.84
409.482	836.18
409.541	879.8
409.6	854.55
409.66	753.52
409.719	792.55
409.778	792.55
409.837	794.85
409.896	875.21
409.955	866.03
410.014	856.84
410.073	769.59
410.132	808.63
410.191	815.51
410.25	797.15
410.309	824.7
410.368	781.07
410.427	797.15
410.486	781.07
410.545	716.79
410.603	776.48
410.662	810.92
410.721	707.6
410.78	668.57
410.839	627.24
410.898	744.34
410.957	728.27
411.015	714.49
411.074	689.23
411.133	723.67
411.192	820.11
411.25	728.27
411.309	739.75
411.368	686.94
411.427	744.34
411.485	833.88
411.544	700.71
411.603	638.72
411.661	693.83
411.72	673.16
411.779	693.83
411.837	719.08
411.896	725.97
411.955	826.99
412.013	728.27
412.072	670.87
412.13	654.79
412.189	627.24
412.247	650.2
412.306	732.86
412.364	709.9
412.423	686.94
412.481	622.65
412.54	588.21
412.598	707.6
412.657	705.31
412.715	606.58
412.774	634.13
412.832	622.65
412.891	604.28
412.949	661.68
413.007	562.95
413.066	663.98
413.124	647.91
413.182	661.68
413.241	686.94
413.299	673.16
413.357	627.24
413.416	698.42
413.474	544.58
413.532	537.7
413.59	641.02
413.649	618.06
413.707	590.5
413.765	618.06
413.823	698.42
413.881	620.35
413.94	618.06
413.998	654.79
414.056	562.95
414.114	599.69
414.172	592.8
414.23	618.06
414.288	549.18
414.347	650.2
414.405	604.28
414.463	606.58
414.521	595.1
414.579	638.72
414.637	624.95
414.695	611.17
414.753	581.32
414.811	611.17
414.869	565.25
414.927	572.14
414.985	611.17
415.043	567.54
415.101	514.74
415.158	565.25
415.216	553.77
415.274	569.84
415.332	574.43
415.39	544.58
415.448	574.43
415.506	599.69
415.563	530.81
415.621	560.66
415.679	567.54
415.737	464.22
415.795	572.14
415.852	579.02
415.91	544.58
415.968	569.84
416.026	592.8
416.083	494.07
416.141	535.4
416.199	507.85
416.256	480.3
416.314	514.74
416.372	560.66
416.429	535.4
416.487	631.83
416.544	562.95
416.602	590.5
416.66	562.95
416.717	512.44
416.775	537.7
416.832	530.81
416.89	549.18
416.947	549.18
417.005	542.29
417.062	542.29
417.12	464.22
417.177	574.43
417.235	560.66
417.292	585.91
417.35	576.73
417.407	514.74
417.464	464.22
417.522	503.26
417.579	441.26
417.637	514.74
417.694	562.95
417.751	510.14
417.809	478
417.866	507.85
417.923	530.81
417.981	503.26
418.038	510.14
418.095	558.36
418.152	517.03
418.21	478
418.267	464.22
418.324	519.33
418.381	533.1
418.438	466.52
418.496	507.85
418.553	432.08
418.61	468.82
418.667	489.48
418.724	459.63
418.781	553.77
418.838	489.48
418.895	530.81
418.952	521.62
419.01	457.34
419.067	535.4
419.124	489.48
419.181	523.92
419.238	464.22
419.295	473.41
419.352	471.11
419.409	402.23
419.466	503.26
419.523	505.55
419.579	510.14
419.636	434.38
419.693	505.55
419.75	482.59
419.807	461.93
419.864	445.86
419.921	498.66
419.978	526.22
420.034	496.37
420.091	489.48
420.148	418.3
420.205	448.15
420.262	420.6
420.318	503.26
420.375	503.26
420.432	464.22
420.489	464.22
420.545	473.41
420.602	450.45
420.659	468.82
420.715	459.63
420.772	478
420.829	450.45
420.885	420.6
420.942	471.11
420.999	461.93
421.055	434.38
421.112	503.26
421.168	436.67
421.225	452.74
421.282	494.07
421.338	461.93
421.395	418.3
421.451	436.67
421.508	411.42
421.564	441.26
421.621	416.01
421.677	478
421.734	478
421.79	478
421.846	503.26
421.903	466.52
421.959	429.78
422.016	416.01
422.072	526.22
422.128	464.22
422.185	432.08
422.241	459.63
422.297	448.15
422.354	484.89
422.41	464.22
422.466	434.38
422.523	388.46
422.579	427.49
422.635	436.67
422.691	404.53
422.748	475.7
422.804	438.97
422.86	464.22
422.916	427.49
422.972	397.64
423.029	422.9
423.085	482.59
423.141	436.67
423.197	482.59
423.253	411.42
423.309	402.23
423.365	514.74
423.421	496.37
423.477	478
423.533	459.63
423.589	381.57
423.645	466.52
423.701	383.86
423.757	448.15
423.813	388.46
423.869	455.04
423.925	459.63
423.981	413.71
424.037	367.79
424.093	420.6
424.149	422.9
424.205	475.7
424.261	411.42
424.317	406.82
424.373	418.3
424.428	448.15
424.484	413.71
424.54	386.16
424.596	383.86
424.652	445.86
424.708	409.12
424.763	416.01
424.819	383.86
424.875	436.67
424.931	399.94
424.986	422.9
425.042	484.89
425.098	459.63
425.153	445.86
425.209	395.34
425.265	457.34
425.32	537.7
425.376	443.56
425.432	409.12
425.487	406.82
425.543	395.34
425.598	468.82
425.654	425.19
425.709	422.9
425.765	475.7
425.82	452.74
425.876	420.6
425.932	374.68
425.987	383.86
426.042	413.71
426.098	397.64
426.153	418.3
426.209	500.96
426.264	450.45
426.32	402.23
426.375	383.86
426.43	427.49
426.486	363.2
426.541	452.74
426.597	367.79
426.652	404.53
426.707	372.38
426.763	358.61
426.818	393.05
426.873	388.46
426.928	443.56
426.984	482.59
427.039	397.64
427.094	409.12
427.149	379.27
427.205	438.97
427.26	399.94
427.315	438.97
427.37	376.98
427.425	494.07
427.48	478
427.536	404.53
427.591	496.37
427.646	438.97
427.701	404.53
427.756	356.31
427.811	402.23
427.866	429.78
427.921	436.67
427.976	452.74
428.031	464.22
428.086	445.86
428.141	441.26
428.196	404.53
428.251	397.64
428.306	418.3
428.361	445.86
428.416	411.42
428.471	416.01
428.526	420.6
428.581	409.12
428.636	386.16
428.691	418.3
428.745	379.27
428.8	344.83
428.855	427.49
428.91	388.46
428.965	372.38
429.02	425.19
429.074	399.94
429.129	413.71
429.184	393.05
429.239	413.71
429.293	434.38
429.348	395.34
429.403	457.34
429.457	445.86
429.512	374.68
429.567	457.34
429.621	429.78
429.676	418.3
429.731	505.55
429.785	422.9
429.84	376.98
429.895	450.45
429.949	390.75
430.004	356.31
430.058	406.82
430.113	397.64
430.167	443.56
430.222	436.67
430.276	399.94
430.331	411.42
430.385	484.89
430.44	457.34
430.494	413.71
430.549	409.12
430.603	354.02
430.657	409.12
430.712	409.12
430.766	416.01
430.821	432.08
430.875	404.53
430.929	399.94
430.984	455.04
431.038	429.78
431.092	471.11
431.147	347.13
431.201	399.94
431.255	441.26
431.309	354.02
431.364	374.68
431.418	399.94
431.472	455.04
431.526	420.6
431.581	432.08
431.635	432.08
431.689	344.83
431.743	367.79
431.797	367.79
431.851	393.05
431.906	461.93
431.96	436.67
432.014	411.42
432.068	356.31
432.122	363.2
432.176	337.94
432.23	381.57
432.284	390.75
432.338	459.63
432.392	386.16
432.446	340.24
432.5	367.79
432.554	413.71
432.608	411.42
432.662	434.38
432.716	397.64
432.77	466.52
432.824	402.23
432.878	376.98
432.931	314.98
432.985	443.56
433.039	386.16
433.093	358.61
433.147	429.78
433.201	388.46
433.254	393.05
433.308	342.54
433.362	379.27
433.416	404.53
433.47	425.19
433.523	390.75
433.577	411.42
433.631	347.13
433.684	452.74
433.738	416.01
433.792	427.49
433.846	422.9
433.899	358.61
433.953	416.01
434.006	393.05
434.06	376.98
434.114	402.23
434.167	402.23
434.221	402.23
