Data from FLMS155811_13-06-46-897.txt Node
Date: Wed Mar 25 13:06:46 MDT 2020
User: ECEn Student
Spectrometer: FLMS15581
Trigger mode: 0
Integration Time (sec): 1.000000E-1
Scans to average: 1
Electric dark correction enabled: true
Nonlinearity correction enabled: false
Boxcar width: 0
XAxis mode: Wavelengths
Number of Pixels in Spectrum: 2048
>>>>>Begin Spectral Data<<<<<
298.026	-11.19
298.106	-11.19
298.185	-11.19
298.265	-11.19
298.344	-22.67
298.424	-73.19
298.503	-24.97
298.583	-84.67
298.662	-27.27
298.741	-27.27
298.821	-57.11
298.9	-43.34
298.98	4.88
299.059	-34.15
299.138	11.77
299.217	-8.9
299.297	20.95
299.376	78.35
299.455	76.06
299.535	66.87
299.614	121.98
299.693	121.98
299.772	262.03
299.852	204.63
299.931	135.75
300.01	223
300.089	291.88
300.168	312.54
300.247	291.88
300.327	303.36
300.406	287.29
300.485	312.54
300.564	296.47
300.643	386.02
300.722	392.9
300.801	328.62
300.88	406.68
300.959	402.09
301.038	351.58
301.117	372.24
301.196	367.65
301.275	360.76
301.354	454.9
301.433	360.76
301.512	390.61
301.591	369.94
301.67	365.35
301.749	418.16
301.828	429.64
301.907	390.61
301.985	438.82
302.064	445.71
302.143	358.46
302.222	390.61
302.301	422.75
302.38	441.12
302.458	363.06
302.537	402.09
302.616	413.57
302.695	388.31
302.773	365.35
302.852	445.71
302.931	381.42
303.01	406.68
303.088	397.5
303.167	441.12
303.246	344.69
303.324	399.79
303.403	374.54
303.481	296.47
303.56	356.17
303.639	422.75
303.717	340.1
303.796	431.94
303.874	402.09
303.953	376.83
304.032	392.9
304.11	406.68
304.189	388.31
304.267	335.5
304.346	369.94
304.424	381.42
304.502	397.5
304.581	346.98
304.659	298.77
304.738	356.17
304.816	353.87
304.895	346.98
304.973	390.61
305.051	344.69
305.13	335.5
305.208	326.32
305.286	367.65
305.365	344.69
305.443	358.46
305.521	372.24
305.6	353.87
305.678	296.47
305.756	344.69
305.834	328.62
305.913	422.75
305.991	312.54
306.069	452.6
306.147	363.06
306.225	298.77
306.304	383.72
306.382	415.86
306.46	346.98
306.538	376.83
306.616	376.83
306.694	303.36
306.772	406.68
306.85	358.46
306.929	406.68
307.007	392.9
307.085	360.76
307.163	319.43
307.241	402.09
307.319	360.76
307.397	404.38
307.475	369.94
307.553	358.46
307.631	386.02
307.709	383.72
307.786	374.54
307.864	328.62
307.942	429.64
308.02	383.72
308.098	344.69
308.176	431.94
308.254	372.24
308.332	349.28
308.409	381.42
308.487	367.65
308.565	369.94
308.643	312.54
308.721	402.09
308.798	349.28
308.876	402.09
308.954	388.31
309.032	406.68
309.109	427.34
309.187	346.98
309.265	404.38
309.342	470.97
309.42	374.54
309.498	427.34
309.575	418.16
309.653	369.94
309.731	406.68
309.808	367.65
309.886	381.42
309.963	349.28
310.041	438.82
310.119	429.64
310.196	429.64
310.274	395.2
310.351	328.62
310.429	381.42
310.506	367.65
310.584	381.42
310.661	392.9
310.738	358.46
310.816	450.3
310.893	429.64
310.971	376.83
311.048	390.61
311.126	406.68
311.203	429.64
311.28	390.61
311.358	392.9
311.435	372.24
311.512	356.17
311.59	381.42
311.667	358.46
311.744	418.16
311.821	367.65
311.899	390.61
311.976	372.24
312.053	369.94
312.13	404.38
312.208	379.13
312.285	330.91
312.362	431.94
312.439	415.86
312.516	383.72
312.593	360.76
312.671	360.76
312.748	365.35
312.825	429.64
312.902	427.34
312.979	452.6
313.056	365.35
313.133	367.65
313.21	450.3
313.287	450.3
313.364	392.9
313.441	422.75
313.518	346.98
313.595	420.46
313.672	406.68
313.749	413.57
313.826	411.27
313.903	454.9
313.98	358.46
314.057	388.31
314.134	425.05
314.211	390.61
314.287	404.38
314.364	425.05
314.441	388.31
314.518	392.9
314.595	427.34
314.672	392.9
314.748	434.23
314.825	457.19
314.902	367.65
314.979	372.24
315.055	363.06
315.132	470.97
315.209	436.53
315.286	406.68
315.362	395.2
315.439	454.9
315.516	351.58
315.592	418.16
315.669	470.97
315.746	392.9
315.822	363.06
315.899	383.72
315.975	376.83
316.052	333.21
316.128	353.87
316.205	408.98
316.282	399.79
316.358	475.56
316.435	402.09
316.511	422.75
316.588	399.79
316.664	353.87
316.741	404.38
316.817	395.2
316.893	369.94
316.97	399.79
317.046	376.83
317.123	480.15
317.199	333.21
317.275	466.38
317.352	372.24
317.428	429.64
317.504	425.05
317.581	411.27
317.657	418.16
317.733	399.79
317.81	422.75
317.886	420.46
317.962	399.79
318.038	441.12
318.115	367.65
318.191	383.72
318.267	422.75
318.343	422.75
318.419	461.78
318.496	383.72
318.572	418.16
318.648	438.82
318.724	397.5
318.8	379.13
318.876	464.08
318.952	445.71
319.028	307.95
319.105	383.72
319.181	383.72
319.257	422.75
319.333	376.83
319.409	381.42
319.485	445.71
319.561	358.46
319.637	388.31
319.713	360.76
319.789	418.16
319.865	413.57
319.94	434.23
320.016	415.86
320.092	402.09
320.168	399.79
320.244	402.09
320.32	392.9
320.396	438.82
320.472	372.24
320.547	404.38
320.623	418.16
320.699	436.53
320.775	367.65
320.851	459.49
320.926	420.46
321.002	363.06
321.078	395.2
321.154	438.82
321.229	369.94
321.305	473.26
321.381	408.98
321.456	466.38
321.532	386.02
321.608	388.31
321.683	418.16
321.759	399.79
321.835	363.06
321.91	383.72
321.986	397.5
322.061	459.49
322.137	431.94
322.212	390.61
322.288	413.57
322.364	351.58
322.439	452.6
322.515	411.27
322.59	376.83
322.666	420.46
322.741	397.5
322.816	415.86
322.892	436.53
322.967	521.48
323.043	404.38
323.118	392.9
323.193	457.19
323.269	427.34
323.344	376.83
323.42	392.9
323.495	454.9
323.57	386.02
323.646	381.42
323.721	466.38
323.796	491.63
323.871	363.06
323.947	406.68
324.022	367.65
324.097	464.08
324.172	372.24
324.248	477.86
324.323	493.93
324.398	448.01
324.473	404.38
324.548	395.2
324.623	374.54
324.699	413.57
324.774	404.38
324.849	461.78
324.924	346.98
324.999	372.24
325.074	461.78
325.149	434.23
325.224	406.68
325.299	367.65
325.374	450.3
325.449	392.9
325.524	425.05
325.599	392.9
325.674	493.93
325.749	415.86
325.824	408.98
325.899	443.42
325.974	349.28
326.049	450.3
326.124	397.5
326.199	482.45
326.273	443.42
326.348	489.34
326.423	415.86
326.498	484.75
326.573	353.87
326.648	466.38
326.722	425.05
326.797	392.9
326.872	372.24
326.947	358.46
327.021	386.02
327.096	374.54
327.171	450.3
327.245	399.79
327.32	360.76
327.395	434.23
327.47	376.83
327.544	411.27
327.619	422.75
327.693	448.01
327.768	415.86
327.843	457.19
327.917	422.75
327.992	425.05
328.066	399.79
328.141	429.64
328.215	445.71
328.29	402.09
328.364	457.19
328.439	487.04
328.513	358.46
328.588	422.75
328.662	436.53
328.737	404.38
328.811	434.23
328.886	411.27
328.96	438.82
329.035	404.38
329.109	411.27
329.183	420.46
329.258	404.38
329.332	372.24
329.406	448.01
329.481	408.98
329.555	390.61
329.629	369.94
329.704	441.12
329.778	408.98
329.852	344.69
329.926	441.12
330.001	360.76
330.075	383.72
330.149	372.24
330.223	445.71
330.297	383.72
330.372	406.68
330.446	404.38
330.52	395.2
330.594	427.34
330.668	404.38
330.742	397.5
330.816	388.31
330.89	388.31
330.964	431.94
331.038	425.05
331.113	457.19
331.187	480.15
331.261	448.01
331.335	438.82
331.409	379.13
331.483	418.16
331.557	434.23
331.63	427.34
331.704	376.83
331.778	402.09
331.852	454.9
331.926	480.15
332	408.98
332.074	411.27
332.148	445.71
332.222	427.34
332.295	406.68
332.369	431.94
332.443	418.16
332.517	404.38
332.591	431.94
332.665	425.05
332.738	411.27
332.812	367.65
332.886	356.17
332.959	406.68
333.033	425.05
333.107	422.75
333.181	420.46
333.254	445.71
333.328	356.17
333.402	411.27
333.475	415.86
333.549	413.57
333.622	431.94
333.696	431.94
333.77	491.63
333.843	461.78
333.917	356.17
333.99	448.01
334.064	406.68
334.137	386.02
334.211	351.58
334.284	390.61
334.358	399.79
334.431	406.68
334.505	337.8
334.578	484.75
334.652	376.83
334.725	427.34
334.799	420.46
334.872	445.71
334.945	436.53
335.019	452.6
335.092	408.98
335.165	491.63
335.239	418.16
335.312	431.94
335.385	402.09
335.459	450.3
335.532	473.26
335.605	413.57
335.678	379.13
335.752	408.98
335.825	420.46
335.898	473.26
335.971	475.56
336.045	415.86
336.118	395.2
336.191	468.67
336.264	477.86
336.337	404.38
336.41	406.68
336.483	448.01
336.557	388.31
336.63	365.35
336.703	452.6
336.776	397.5
336.849	500.82
336.922	448.01
336.995	386.02
337.068	411.27
337.141	402.09
337.214	408.98
337.287	367.65
337.36	425.05
337.433	418.16
337.506	436.53
337.579	404.38
337.652	411.27
337.725	365.35
337.797	445.71
337.87	395.2
337.943	397.5
338.016	422.75
338.089	427.34
338.162	422.75
338.235	402.09
338.307	411.27
338.38	379.13
338.453	487.04
338.526	365.35
338.598	459.49
338.671	404.38
338.744	397.5
338.817	411.27
338.889	418.16
338.962	411.27
339.035	406.68
339.107	392.9
339.18	422.75
339.253	422.75
339.325	450.3
339.398	337.8
339.47	390.61
339.543	429.64
339.616	429.64
339.688	448.01
339.761	459.49
339.833	390.61
339.906	468.67
339.978	386.02
340.051	372.24
340.123	425.05
340.196	422.75
340.268	507.71
340.341	402.09
340.413	427.34
340.485	411.27
340.558	411.27
340.63	448.01
340.703	477.86
340.775	381.42
340.847	450.3
340.92	445.71
340.992	363.06
341.064	392.9
341.137	500.82
341.209	425.05
341.281	477.86
341.354	399.79
341.426	413.57
341.498	363.06
341.57	461.78
341.643	406.68
341.715	422.75
341.787	498.52
341.859	353.87
341.931	448.01
342.003	402.09
342.076	374.54
342.148	470.97
342.22	376.83
342.292	436.53
342.364	386.02
342.436	363.06
342.508	392.9
342.58	425.05
342.652	418.16
342.724	369.94
342.796	445.71
342.868	500.82
342.94	379.13
343.012	477.86
343.084	466.38
343.156	408.98
343.228	404.38
343.3	411.27
343.372	397.5
343.444	418.16
343.516	436.53
343.588	383.72
343.66	459.49
343.731	466.38
343.803	381.42
343.875	422.75
343.947	431.94
344.019	429.64
344.09	376.83
344.162	487.04
344.234	452.6
344.306	411.27
344.377	445.71
344.449	443.42
344.521	434.23
344.593	411.27
344.664	487.04
344.736	454.9
344.808	452.6
344.879	360.76
344.951	436.53
345.023	438.82
345.094	422.75
345.166	420.46
345.237	466.38
345.309	413.57
345.38	468.67
345.452	415.86
345.524	399.79
345.595	395.2
345.667	415.86
345.738	443.42
345.81	411.27
345.881	427.34
345.953	448.01
346.024	406.68
346.095	457.19
346.167	459.49
346.238	431.94
346.31	408.98
346.381	429.64
346.452	431.94
346.524	434.23
346.595	429.64
346.666	441.12
346.738	395.2
346.809	397.5
346.88	498.52
346.952	454.9
347.023	420.46
347.094	392.9
347.165	425.05
347.237	415.86
347.308	454.9
347.379	390.61
347.45	482.45
347.521	411.27
347.593	438.82
347.664	468.67
347.735	399.79
347.806	505.41
347.877	477.86
347.948	363.06
348.019	434.23
348.09	427.34
348.161	480.15
348.233	425.05
348.304	477.86
348.375	466.38
348.446	459.49
348.517	429.64
348.588	402.09
348.659	457.19
348.73	436.53
348.801	466.38
348.871	441.12
348.942	482.45
349.013	418.16
349.084	404.38
349.155	441.12
349.226	411.27
349.297	431.94
349.368	381.42
349.439	516.89
349.509	406.68
349.58	422.75
349.651	448.01
349.722	427.34
349.793	489.34
349.863	438.82
349.934	429.64
350.005	487.04
350.076	473.26
350.146	434.23
350.217	418.16
350.288	450.3
350.358	489.34
350.429	436.53
350.5	470.97
350.57	441.12
350.641	397.5
350.711	475.56
350.782	441.12
350.853	452.6
350.923	493.93
350.994	402.09
351.064	542.15
351.135	438.82
351.205	438.82
351.276	418.16
351.346	413.57
351.417	452.6
351.487	404.38
351.558	395.2
351.628	431.94
351.699	402.09
351.769	457.19
351.84	420.46
351.91	461.78
351.98	553.63
352.051	477.86
352.121	413.57
352.191	390.61
352.262	493.93
352.332	443.42
352.402	434.23
352.473	452.6
352.543	381.42
352.613	441.12
352.683	443.42
352.754	406.68
352.824	457.19
352.894	408.98
352.964	420.46
353.035	457.19
353.105	434.23
353.175	459.49
353.245	445.71
353.315	491.63
353.385	500.82
353.455	438.82
353.526	438.82
353.596	473.26
353.666	450.3
353.736	454.9
353.806	436.53
353.876	422.75
353.946	510
354.016	466.38
354.086	473.26
354.156	459.49
354.226	388.31
354.296	454.9
354.366	519.19
354.436	418.16
354.506	383.72
354.576	425.05
354.645	454.9
354.715	491.63
354.785	496.23
354.855	510
354.925	457.19
354.995	413.57
355.065	422.75
355.134	498.52
355.204	454.9
355.274	376.83
355.344	498.52
355.414	461.78
355.483	452.6
355.553	468.67
355.623	392.9
355.693	475.56
355.762	438.82
355.832	535.26
355.902	475.56
355.971	381.42
356.041	422.75
356.111	436.53
356.18	470.97
356.25	496.23
356.319	441.12
356.389	452.6
356.459	496.23
356.528	397.5
356.598	484.75
356.667	475.56
356.737	438.82
356.806	434.23
356.876	415.86
356.945	418.16
357.015	450.3
357.084	468.67
357.154	438.82
357.223	475.56
357.292	427.34
357.362	475.56
357.431	535.26
357.501	413.57
357.57	468.67
357.639	413.57
357.709	436.53
357.778	489.34
357.847	429.64
357.917	415.86
357.986	470.97
358.055	514.59
358.124	438.82
358.194	565.11
358.263	484.75
358.332	503.11
358.401	567.4
358.471	477.86
358.54	477.86
358.609	487.04
358.678	487.04
358.747	473.26
358.816	402.09
358.886	498.52
358.955	457.19
359.024	457.19
359.093	500.82
359.162	496.23
359.231	429.64
359.3	496.23
359.369	390.61
359.438	473.26
359.507	498.52
359.576	473.26
359.645	512.3
359.714	418.16
359.783	454.9
359.852	470.97
359.921	477.86
359.99	500.82
360.059	482.45
360.128	500.82
360.197	480.15
360.266	503.11
360.334	473.26
360.403	477.86
360.472	468.67
360.541	526.07
360.61	519.19
360.679	546.74
360.747	480.15
360.816	539.85
360.885	448.01
360.954	551.33
361.022	505.41
361.091	461.78
361.16	496.23
361.228	454.9
361.297	461.78
361.366	493.93
361.434	539.85
361.503	489.34
361.572	500.82
361.64	503.11
361.709	427.34
361.778	496.23
361.846	470.97
361.915	459.49
361.983	510
362.052	482.45
362.12	457.19
362.189	512.3
362.257	507.71
362.326	523.78
362.394	459.49
362.463	477.86
362.531	510
362.6	512.3
362.668	443.42
362.737	549.03
362.805	535.26
362.873	537.55
362.942	514.59
363.01	516.89
363.079	532.96
363.147	516.89
363.215	500.82
363.284	484.75
363.352	512.3
363.42	530.67
363.488	484.75
363.557	482.45
363.625	555.92
363.693	569.7
363.761	510
363.83	592.66
363.898	592.66
363.966	569.7
364.034	558.22
364.102	574.29
364.171	569.7
364.239	569.7
364.307	521.48
364.375	611.03
364.443	601.84
364.511	627.1
364.579	622.51
364.647	569.7
364.715	647.76
364.783	638.58
364.851	622.51
364.919	679.91
364.987	599.55
365.055	661.54
365.123	661.54
365.191	620.21
365.259	654.65
365.327	746.49
365.395	732.71
365.463	760.27
365.531	744.19
365.599	801.59
365.667	654.65
365.735	776.34
365.802	753.38
365.87	741.9
365.938	806.19
366.006	907.21
366.074	872.77
366.142	907.21
366.209	932.47
366.277	918.69
366.345	932.47
366.413	934.76
366.48	932.47
366.548	941.65
366.616	966.91
366.683	1024.31
366.751	1056.45
366.819	1056.45
366.886	1056.45
366.954	1063.34
367.022	1111.56
367.089	1054.16
367.157	1182.73
367.224	1228.65
367.292	1194.21
367.36	1191.92
367.427	1313.6
367.495	1364.12
367.562	1345.75
367.63	1361.82
367.697	1368.71
367.765	1334.27
367.832	1414.63
367.9	1543.21
367.967	1485.81
368.034	1527.13
368.102	1651.12
368.169	1609.79
368.237	1715.41
368.304	1598.31
368.371	1733.77
368.439	1749.85
368.506	1674.08
368.573	1896.79
368.641	1876.13
368.708	1961.08
368.775	1997.82
368.843	1986.34
368.91	2153.94
368.977	2064.4
369.044	2176.9
369.112	2186.09
369.179	2303.18
369.246	2337.62
369.313	2406.5
369.38	2473.09
369.448	2560.34
369.515	2489.16
369.582	2594.78
369.649	2569.52
369.716	2808.31
369.783	2778.46
369.85	2909.33
369.917	2847.34
369.984	2930
370.052	3021.84
370.119	3035.61
370.186	3237.66
370.253	3180.26
370.32	3363.94
370.387	3400.68
370.454	3490.22
370.521	3508.59
370.587	3800.18
370.654	3630.28
370.721	3607.32
370.788	3712.93
370.855	3827.73
370.922	4041.26
370.989	4025.19
371.056	4082.59
371.123	4080.3
371.189	4303.01
371.256	4346.63
371.323	4429.29
371.39	4532.61
371.457	4663.48
371.523	4817.31
371.59	4810.43
371.657	4975.74
371.724	5051.51
371.79	5157.12
371.857	5285.7
371.924	5391.32
371.991	5446.42
372.057	5545.15
372.124	5712.76
372.191	5708.17
372.257	5884.96
372.324	6059.46
372.39	6259.21
372.457	6339.57
372.524	6282.17
372.59	6429.11
372.657	6553.1
372.723	6571.47
372.79	6725.3
372.856	6982.45
372.923	7106.44
372.989	7159.24
373.056	7301.6
373.122	7368.18
373.189	7648.29
373.255	7678.14
373.322	7898.56
373.388	8148.82
373.454	8337.1
373.521	8321.03
373.587	8608.03
373.654	8722.83
373.72	8791.71
373.786	8977.68
373.853	9177.44
373.919	9117.74
373.985	9446.07
374.052	9595.31
374.118	9859.35
374.184	10017.78
374.25	10341.51
374.317	10134.87
374.383	10782.35
374.449	10777.76
374.515	10883.37
374.581	10963.73
374.648	11076.24
374.714	11418.34
374.78	11351.76
374.846	11863.77
374.912	11990.05
374.978	12309.19
375.044	12456.14
375.11	12924.52
375.177	13078.36
375.243	13046.21
375.309	13351.58
375.375	13645.47
375.441	13806.19
375.507	14260.8
375.573	14290.65
375.639	14382.49
375.705	14818.73
375.771	15147.06
375.837	15525.9
375.903	15381.25
375.968	15748.62
376.034	15884.08
376.1	16226.19
376.166	16559.11
376.232	16692.28
376.298	17307.61
376.364	17123.93
376.43	17505.06
376.495	17750.74
376.561	18134.17
376.627	18423.47
376.693	18832.16
376.759	19082.42
376.824	19346.46
376.89	19677.09
376.956	20400.33
377.022	20788.36
377.087	21031.73
377.153	20976.63
377.219	21325.62
377.284	21846.82
377.35	21922.59
377.416	22434.6
377.481	22916.76
377.547	23054.52
377.613	23534.38
377.678	23798.43
377.744	24117.57
377.809	24721.42
377.875	25162.26
377.94	25678.86
378.006	25727.07
378.071	26434.24
378.137	26937.07
378.202	27350.35
378.268	27531.74
378.333	28234.32
378.399	28422.59
378.464	28886.38
378.53	29221.6
378.595	29490.23
378.661	30250.21
378.726	30376.49
378.791	30952.79
378.857	31754.1
378.922	31802.31
378.987	32429.13
379.053	33117.93
379.118	33542.69
379.183	33843.47
379.249	34311.85
379.314	34777.94
379.379	35002.95
379.444	35990.24
379.51	36513.73
379.575	37087.73
379.64	37590.56
379.705	38084.2
379.771	38058.94
379.836	38963.57
379.901	38947.5
379.966	39847.53
380.031	40570.78
380.096	41316.98
380.161	41548.88
380.227	41907.05
380.292	42880.56
380.357	43119.35
380.422	43725.49
380.487	43824.22
380.552	43860.96
380.617	45215.6
380.682	45913.59
380.747	46239.62
380.812	46416.42
380.877	46843.47
380.942	46758.52
381.007	47162.62
381.072	47752.69
381.137	47869.79
381.202	48703.24
381.266	48921.36
381.331	49403.52
381.396	49424.19
381.461	49486.18
381.526	49982.12
381.591	50214.02
381.656	50289.78
381.72	50599.75
381.785	50964.81
381.85	50487.24
381.915	51077.31
381.979	51352.84
382.044	51678.87
382.109	51621.47
382.174	51690.35
382.238	51669.69
382.303	51903.88
382.368	51988.83
382.432	52000.31
382.497	52020.97
382.562	51984.24
382.626	51706.42
382.691	52248.28
382.756	51616.88
382.82	51795.97
382.885	51786.78
382.949	51396.46
383.014	51332.17
383.078	51327.58
383.143	51178.34
383.208	50517.09
383.272	50317.34
383.337	50156.62
383.401	50021.15
383.465	49043.05
383.53	48850.19
383.594	48983.35
383.659	48374.91
383.723	47711.37
383.788	47598.86
383.852	46887.1
383.916	46632.24
383.981	46900.87
384.045	46225.85
384.109	45672.51
384.174	45270.71
384.238	44418.89
384.302	44281.13
384.367	43314.51
384.431	42813.98
384.495	41946.09
384.56	41507.55
384.624	40433.01
384.688	40458.27
384.752	39826.87
384.816	38988.82
384.881	38192.11
384.945	37673.21
385.009	37271.41
385.073	36268.05
385.137	35921.36
385.201	35322.1
385.265	34929.48
385.33	34079.96
385.394	33606.98
385.458	33138.59
385.522	32426.83
385.586	32077.84
385.65	31496.95
385.714	30562.47
385.778	30218.07
385.842	29857.59
385.906	29320.33
385.97	28236.61
386.034	27827.92
386.098	27490.41
386.162	27343.46
386.226	26702.88
386.29	26252.86
386.354	25805.14
386.417	25350.53
386.481	25107.15
386.545	25100.26
386.609	24264.52
386.673	23722.66
386.737	23573.42
386.8	23043.04
386.864	22512.66
386.928	22246.32
386.992	21993.76
387.056	21449.61
387.119	21070.77
387.183	21203.94
387.247	20809.02
387.31	20563.35
387.374	20347.52
387.438	19840.11
387.502	19272.99
387.565	18997.47
387.629	18696.69
387.692	18602.56
387.756	18430.36
387.82	18317.85
387.883	18350
387.947	17831.1
388.01	17670.38
388.074	17114.74
388.138	17353.53
388.201	16910.4
388.265	16366.24
388.328	16354.76
388.392	16481.04
388.455	16012.66
388.519	15973.63
388.582	15688.92
388.645	15769.28
388.709	15502.94
388.772	15245.79
388.836	15307.78
388.899	15142.47
388.962	15110.33
389.026	14747.56
389.089	14623.57
389.153	14492.7
389.216	14088.6
389.279	14058.75
389.343	13987.58
389.406	13645.47
389.469	13801.6
389.532	13842.93
389.596	13647.77
389.659	13342.4
389.722	13041.62
389.785	13174.79
389.848	13030.14
389.912	12874.01
389.975	12623.75
390.038	12681.15
390.101	12407.92
390.164	12518.13
390.227	12531.91
390.291	12522.72
390.354	12334.45
390.417	12263.27
390.48	12157.66
390.543	12123.22
390.606	11944.13
390.669	11882.14
390.732	11758.15
390.795	11723.71
390.858	11546.92
390.921	11553.81
390.984	11255.33
391.047	11427.53
391.11	11250.73
391.173	11009.65
391.236	10959.14
391.299	10842.04
391.362	10867.3
391.424	10747.91
391.487	10731.84
391.55	10559.63
391.613	10672.14
391.676	10495.35
391.739	10591.78
391.802	10373.66
391.864	10231.31
391.927	10049.92
391.99	9905.27
392.053	10077.47
392.115	9919.05
392.178	9765.22
392.241	9797.36
392.304	9661.9
392.366	9636.64
392.429	9544.8
392.492	9397.85
392.554	9165.96
392.617	8975.39
392.68	9016.72
392.742	8915.69
392.805	8947.84
392.867	8800.89
392.93	8768.75
392.992	8568.99
393.055	8633.28
393.118	8337.1
393.18	8199.34
393.243	8224.59
393.305	8121.27
393.368	8084.54
393.43	8036.32
393.493	7861.82
393.555	7765.39
393.618	7675.85
393.68	7671.25
393.742	7496.76
393.805	7519.72
393.867	7420.99
393.93	7329.15
393.992	7156.95
394.054	7152.36
394.117	6938.83
394.179	6725.3
394.241	6775.81
394.304	6624.27
394.366	6539.32
394.428	6585.24
394.49	6587.54
394.553	6488.81
394.615	6289.06
394.677	6178.85
394.739	6178.85
394.802	6013.54
394.864	6061.75
394.926	5965.32
394.988	5698.98
395.05	5822.97
395.112	5662.25
395.174	5494.64
395.237	5529.08
395.299	5336.21
395.361	5333.92
395.423	5239.78
395.485	5030.84
395.547	5099.72
395.609	4943.6
395.671	4890.79
395.733	4932.12
395.795	4808.13
395.857	4741.55
395.919	4580.83
395.981	4596.9
396.043	4461.43
396.105	4463.73
396.167	4502.76
396.229	4275.46
396.291	4243.31
396.352	4280.05
396.414	4172.14
396.476	4089.48
396.538	4110.14
396.6	4025.19
396.662	3919.58
396.724	3809.37
396.785	3855.29
396.847	3751.97
396.909	3745.08
396.971	3797.89
397.032	3572.88
397.094	3692.27
397.156	3577.47
397.218	3476.45
397.279	3412.16
397.341	3373.13
397.403	3340.98
397.464	3393.79
397.526	3311.13
397.588	3389.2
397.649	3226.18
397.711	3324.91
397.772	3256.03
397.834	3031.02
397.896	3047.09
397.957	3097.6
398.019	3083.83
398.08	3012.65
398.142	2845.04
398.203	2810.6
398.265	2794.53
398.326	2764.68
398.388	2890.96
398.449	2760.09
398.511	2840.45
398.572	2716.47
398.633	2642.99
398.695	2704.99
398.756	2617.74
398.818	2629.22
398.879	2548.86
398.94	2594.78
399.002	2512.12
399.063	2541.97
399.124	2477.68
399.186	2443.24
399.247	2383.54
399.308	2457.02
399.369	2521.31
399.431	2383.54
399.492	2413.39
399.553	2264.15
399.614	2333.03
399.676	2337.62
399.737	2300.89
399.798	2291.7
399.859	2195.27
399.92	2179.2
399.981	2241.19
400.042	2218.23
400.104	2108.02
400.165	2147.06
400.226	2234.3
400.287	2055.22
400.348	2071.29
400.409	2140.17
400.47	2094.25
400.531	2064.4
400.592	2112.62
400.653	2020.78
400.714	2110.32
400.775	1995.52
400.836	2094.25
400.897	2023.07
400.958	1935.82
401.019	2002.41
401.08	2004.7
401.141	1926.64
401.201	1871.53
401.262	1905.97
401.323	1954.19
401.384	1843.98
401.445	1887.61
401.506	1933.53
401.567	1951.9
401.627	1837.09
401.688	1883.01
401.749	1809.54
401.81	1841.69
401.87	1873.83
401.931	1866.94
401.992	1784.29
402.053	1710.81
402.113	1800.36
402.174	1866.94
402.235	1724.59
402.295	1742.96
402.356	1756.73
402.417	1765.92
402.477	1664.89
402.538	1777.4
402.598	1685.56
402.659	1664.89
402.719	1720
402.78	1710.81
402.841	1708.52
402.901	1690.15
402.962	1605.2
403.022	1623.57
403.083	1559.28
403.143	1540.91
403.204	1618.97
403.264	1515.65
403.324	1584.53
403.385	1506.47
403.445	1635.05
403.506	1618.97
403.566	1540.91
403.627	1501.88
403.687	1490.4
403.747	1522.54
403.808	1476.62
403.868	1520.25
403.928	1492.69
403.989	1435.29
404.049	1437.59
404.109	1529.43
404.169	1433
404.23	1433
404.29	1403.15
404.35	1364.12
404.41	1492.69
404.47	1398.56
404.531	1375.6
404.591	1428.4
404.651	1396.26
404.711	1433
404.771	1444.48
404.831	1419.22
404.892	1345.75
404.952	1283.76
405.012	1398.56
405.072	1343.45
405.132	1377.89
405.192	1364.12
405.252	1276.87
405.312	1237.84
405.372	1260.8
405.432	1242.43
405.492	1331.97
405.552	1302.12
405.612	1295.24
405.672	1219.47
405.732	1201.1
405.792	1237.84
405.852	1175.84
405.912	1233.24
405.971	1148.29
406.031	1152.88
406.091	1152.88
406.151	1210.28
406.211	1146
406.271	1109.26
406.33	1134.52
406.39	1171.25
406.45	1042.68
406.51	1180.44
406.57	1111.56
406.629	1088.6
406.689	1051.86
406.749	1074.82
406.808	1116.15
406.868	1090.89
406.928	1038.08
406.988	1042.68
407.047	1049.56
407.107	950.83
407.166	1015.12
407.226	1008.24
407.286	969.2
407.345	953.13
407.405	996.76
407.464	941.65
407.524	1019.72
407.584	918.69
407.643	937.06
407.703	900.32
407.762	909.51
407.822	994.46
407.881	916.39
407.941	893.43
408	856.7
408.059	911.8
408.119	957.72
408.178	937.06
408.238	893.43
408.297	902.62
408.356	879.66
408.416	879.66
408.475	884.25
408.535	842.92
408.594	911.8
408.653	845.22
408.712	799.3
408.772	755.67
408.831	849.81
408.89	852.11
408.95	861.29
409.009	856.7
409.068	838.33
409.127	771.75
409.186	840.63
409.246	771.75
409.305	792.41
409.364	760.27
409.423	737.31
409.482	817.67
409.541	746.49
409.6	792.41
409.66	822.26
409.719	787.82
409.778	792.41
409.837	783.23
409.896	760.27
409.955	753.38
410.014	748.79
410.073	718.94
410.132	668.43
410.191	739.6
410.25	806.19
410.309	757.97
410.368	732.71
410.427	730.42
410.486	794.71
410.545	735.01
410.603	698.27
410.662	679.91
410.721	661.54
410.78	716.64
410.839	686.79
410.898	682.2
410.957	705.16
411.015	695.98
411.074	691.39
411.133	675.31
411.192	673.02
411.25	670.72
411.309	647.76
411.368	613.32
411.427	666.13
411.485	636.28
411.544	686.79
411.603	643.17
411.661	652.35
411.72	707.46
411.779	691.39
411.837	620.21
411.896	668.43
411.955	677.61
412.013	636.28
412.072	645.47
412.13	666.13
412.189	624.8
412.247	647.76
412.306	562.81
412.364	663.83
412.423	643.17
412.481	640.87
412.54	597.25
412.598	627.1
412.657	585.77
412.715	714.35
412.774	620.21
412.832	608.73
412.891	604.14
412.949	569.7
413.007	601.84
413.066	633.99
413.124	631.69
413.182	638.58
413.241	512.3
413.299	601.84
413.357	585.77
413.416	624.8
413.474	679.91
413.532	620.21
413.59	528.37
413.649	597.25
413.707	558.22
413.765	622.51
413.823	542.15
413.881	569.7
413.94	581.18
413.998	611.03
414.056	537.55
414.114	585.77
414.172	571.99
414.23	631.69
414.288	601.84
414.347	592.66
414.405	555.92
414.463	544.44
414.521	519.19
414.579	588.07
414.637	606.43
414.695	546.74
414.753	594.95
414.811	496.23
414.869	521.48
414.927	544.44
414.985	505.41
415.043	532.96
415.101	544.44
415.158	574.29
415.216	530.67
415.274	521.48
415.332	521.48
415.39	530.67
415.448	638.58
415.506	578.88
415.563	468.67
415.621	574.29
415.679	505.41
415.737	491.63
415.795	571.99
415.852	539.85
415.91	514.59
415.968	608.73
416.026	510
416.083	480.15
416.141	477.86
416.199	475.56
416.256	489.34
416.314	555.92
416.372	526.07
416.429	539.85
416.487	519.19
416.544	539.85
416.602	496.23
416.66	489.34
416.717	496.23
416.775	500.82
416.832	555.92
416.89	507.71
416.947	526.07
417.005	530.67
417.062	482.45
417.12	574.29
417.177	521.48
417.235	526.07
417.292	441.12
417.35	496.23
417.407	523.78
417.464	477.86
417.522	470.97
417.579	457.19
417.637	530.67
417.694	466.38
417.751	535.26
417.809	466.38
417.866	482.45
417.923	500.82
417.981	454.9
418.038	512.3
418.095	519.19
418.152	487.04
418.21	500.82
418.267	496.23
418.324	482.45
418.381	473.26
418.438	516.89
418.496	519.19
418.553	484.75
418.61	473.26
418.667	505.41
418.724	489.34
418.781	477.86
418.838	427.34
418.895	510
418.952	466.38
419.01	457.19
419.067	415.86
419.124	459.49
419.181	500.82
419.238	422.75
419.295	422.75
419.352	470.97
419.409	493.93
419.466	505.41
419.523	466.38
419.579	475.56
419.636	452.6
419.693	431.94
419.75	526.07
419.807	386.02
419.864	445.71
419.921	448.01
419.978	402.09
420.034	484.75
420.091	420.46
420.148	427.34
420.205	427.34
420.262	505.41
420.318	491.63
420.375	473.26
420.432	487.04
420.489	468.67
420.545	507.71
420.602	473.26
420.659	427.34
420.715	443.42
420.772	466.38
420.829	443.42
420.885	422.75
420.942	445.71
420.999	521.48
421.055	487.04
421.112	420.46
421.168	402.09
421.225	482.45
421.282	431.94
421.338	379.13
421.395	395.2
421.451	431.94
421.508	473.26
421.564	489.34
421.621	461.78
421.677	425.05
421.734	420.46
421.79	454.9
421.846	457.19
421.903	466.38
421.959	489.34
422.016	468.67
422.072	418.16
422.128	441.12
422.185	413.57
422.241	438.82
422.297	443.42
422.354	441.12
422.41	434.23
422.466	503.11
422.523	500.82
422.579	493.93
422.635	429.64
422.691	461.78
422.748	454.9
422.804	441.12
422.86	404.38
422.916	353.87
422.972	402.09
423.029	399.79
423.085	448.01
423.141	397.5
423.197	436.53
423.253	372.24
423.309	431.94
423.365	450.3
423.421	461.78
423.477	468.67
423.533	395.2
423.589	406.68
423.645	365.35
423.701	392.9
423.757	429.64
423.813	457.19
423.869	369.94
423.925	436.53
423.981	422.75
424.037	390.61
424.093	395.2
424.149	388.31
424.205	427.34
424.261	392.9
424.317	395.2
424.373	392.9
424.428	443.42
424.484	477.86
424.54	422.75
424.596	466.38
424.652	464.08
424.708	397.5
424.763	443.42
424.819	452.6
424.875	399.79
424.931	464.08
424.986	448.01
425.042	406.68
425.098	365.35
425.153	340.1
425.209	399.79
425.265	381.42
425.32	420.46
425.376	431.94
425.432	397.5
425.487	464.08
425.543	431.94
425.598	376.83
425.654	392.9
425.709	415.86
425.765	363.06
425.82	411.27
425.876	328.62
425.932	413.57
425.987	402.09
426.042	418.16
426.098	381.42
426.153	390.61
426.209	411.27
426.264	399.79
426.32	386.02
426.375	418.16
426.43	427.34
426.486	395.2
426.541	436.53
426.597	402.09
426.652	408.98
426.707	422.75
426.763	388.31
426.818	395.2
426.873	459.49
426.928	441.12
426.984	420.46
427.039	425.05
427.094	411.27
427.149	429.64
427.205	434.23
427.26	459.49
427.315	402.09
427.37	413.57
427.425	376.83
427.48	415.86
427.536	365.35
427.591	376.83
427.646	461.78
427.701	425.05
427.756	397.5
427.811	431.94
427.866	411.27
427.921	411.27
427.976	411.27
428.031	356.17
428.086	388.31
428.141	395.2
428.196	363.06
428.251	422.75
428.306	408.98
428.361	397.5
428.416	369.94
428.471	473.26
428.526	443.42
428.581	358.46
428.636	360.76
428.691	448.01
428.745	399.79
428.8	397.5
428.855	434.23
428.91	411.27
428.965	413.57
429.02	386.02
429.074	448.01
429.129	402.09
429.184	418.16
429.239	379.13
429.293	392.9
429.348	363.06
429.403	431.94
429.457	422.75
429.512	466.38
429.567	408.98
429.621	459.49
429.676	406.68
429.731	425.05
429.785	340.1
429.84	390.61
429.895	402.09
429.949	429.64
430.004	461.78
430.058	420.46
430.113	422.75
430.167	367.65
430.222	386.02
430.276	406.68
430.331	436.53
430.385	392.9
430.44	438.82
430.494	397.5
430.549	415.86
430.603	459.49
430.657	482.45
430.712	358.46
430.766	457.19
430.821	388.31
430.875	383.72
430.929	436.53
430.984	406.68
431.038	427.34
431.092	383.72
431.147	344.69
431.201	408.98
431.255	351.58
431.309	408.98
431.364	441.12
431.418	381.42
431.472	431.94
431.526	365.35
431.581	399.79
431.635	365.35
431.689	399.79
431.743	411.27
431.797	445.71
431.851	381.42
431.906	376.83
431.96	399.79
432.014	445.71
432.068	418.16
432.122	367.65
432.176	305.66
432.23	450.3
432.284	459.49
432.338	418.16
432.392	388.31
432.446	383.72
432.5	388.31
432.554	438.82
432.608	372.24
432.662	438.82
432.716	418.16
432.77	342.39
432.824	353.87
432.878	349.28
432.931	386.02
432.985	395.2
433.039	369.94
433.093	363.06
433.147	406.68
433.201	443.42
433.254	365.35
433.308	420.46
433.362	353.87
433.416	411.27
433.47	415.86
433.523	335.5
433.577	367.65
433.631	390.61
433.684	353.87
433.738	420.46
433.792	450.3
433.846	420.46
433.899	413.57
433.953	399.79
434.006	386.02
434.06	328.62
434.114	367.65
434.167	367.65
434.221	367.65
