Data from FLMS155811_12-46-35-769.txt Node
Date: Thu Aug 11 12:46:35 MDT 2022
User: ecestudent
Spectrometer: FLMS15581
Trigger mode: 0
Integration Time (sec): 1.000000E-1
Scans to average: 1
Electric dark correction enabled: true
Nonlinearity correction enabled: false
Boxcar width: 0
XAxis mode: Wavelengths
Number of Pixels in Spectrum: 2048
>>>>>Begin Spectral Data<<<<<
298.026	-37.74
298.106	-37.74
298.185	-37.74
298.265	-51.52
298.344	-74.48
298.424	-90.55
298.503	-106.62
298.583	-65.29
298.662	-33.15
298.741	-81.36
298.821	-95.14
298.9	-51.52
298.98	47.21
299.059	-1
299.138	106.91
299.217	58.69
299.297	40.32
299.376	38.03
299.455	70.17
299.535	54.1
299.614	109.2
299.693	113.8
299.772	143.64
299.852	164.31
299.931	258.44
300.01	253.85
300.089	224
300.168	214.82
300.247	230.89
300.327	313.55
300.406	343.4
300.485	260.74
300.564	352.58
300.643	286
300.722	377.84
300.801	407.69
300.88	403.09
300.959	380.13
301.038	354.88
301.117	318.14
301.196	366.36
301.275	382.43
301.354	393.91
301.433	393.91
301.512	361.77
301.591	442.13
301.67	398.5
301.749	414.57
301.828	336.51
301.907	517.89
301.985	382.43
302.064	426.05
302.143	414.57
302.222	471.97
302.301	416.87
302.38	334.21
302.458	343.4
302.537	396.21
302.616	403.09
302.695	343.4
302.773	384.73
302.852	416.87
302.931	400.8
303.01	377.84
303.088	343.4
303.167	414.57
303.246	366.36
303.324	366.36
303.403	364.06
303.481	352.58
303.56	437.53
303.639	396.21
303.717	409.98
303.796	302.07
303.874	361.77
303.953	439.83
304.032	387.02
304.11	398.5
304.189	350.28
304.267	343.4
304.346	308.96
304.424	341.1
304.502	357.17
304.581	354.88
304.659	329.62
304.738	320.44
304.816	341.1
304.895	318.14
304.973	357.17
305.051	299.77
305.13	327.32
305.208	391.61
305.286	334.21
305.365	354.88
305.443	320.44
305.521	380.13
305.6	380.13
305.678	361.77
305.756	329.62
305.834	359.47
305.913	329.62
305.991	380.13
306.069	403.09
306.147	322.73
306.225	336.51
306.304	387.02
306.382	366.36
306.46	350.28
306.538	382.43
306.616	453.61
306.694	405.39
306.772	419.17
306.85	350.28
306.929	426.05
307.007	357.17
307.085	377.84
307.163	380.13
307.241	368.65
307.319	393.91
307.397	373.25
307.475	391.61
307.553	343.4
307.631	373.25
307.709	327.32
307.786	384.73
307.864	357.17
307.942	357.17
308.02	403.09
308.098	366.36
308.176	400.8
308.254	364.06
308.332	419.17
308.409	377.84
308.487	359.47
308.565	380.13
308.643	398.5
308.721	389.32
308.798	350.28
308.876	331.92
308.954	403.09
309.032	403.09
309.109	393.91
309.187	428.35
309.265	373.25
309.342	377.84
309.42	359.47
309.498	364.06
309.575	352.58
309.653	426.05
309.731	414.57
309.808	432.94
309.886	453.61
309.963	370.95
310.041	407.69
310.119	437.53
310.196	373.25
310.274	375.54
310.351	370.95
310.429	334.21
310.506	370.95
310.584	426.05
310.661	373.25
310.738	366.36
310.816	393.91
310.893	398.5
310.971	389.32
311.048	338.8
311.126	428.35
311.203	387.02
311.28	398.5
311.358	370.95
311.435	391.61
311.512	352.58
311.59	359.47
311.667	352.58
311.744	435.24
311.821	375.54
311.899	375.54
311.976	364.06
312.053	449.01
312.13	430.65
312.208	354.88
312.285	350.28
312.362	347.99
312.439	364.06
312.516	336.51
312.593	393.91
312.671	428.35
312.748	350.28
312.825	421.46
312.902	398.5
312.979	373.25
313.056	366.36
313.133	400.8
313.21	359.47
313.287	361.77
313.364	357.17
313.441	423.76
313.518	384.73
313.595	419.17
313.672	384.73
313.749	414.57
313.826	396.21
313.903	423.76
313.98	366.36
314.057	377.84
314.134	377.84
314.211	308.96
314.287	387.02
314.364	368.65
314.441	419.17
314.518	396.21
314.595	421.46
314.672	437.53
314.748	313.55
314.825	403.09
314.902	382.43
314.979	391.61
315.055	325.03
315.132	313.55
315.209	391.61
315.286	453.61
315.362	393.91
315.439	366.36
315.516	327.32
315.592	458.2
315.669	421.46
315.746	368.65
315.822	460.49
315.899	370.95
315.975	405.39
316.052	414.57
316.128	506.41
316.205	387.02
316.282	393.91
316.358	350.28
316.435	396.21
316.511	414.57
316.588	396.21
316.664	419.17
316.741	382.43
316.817	373.25
316.893	423.76
316.97	387.02
317.046	439.83
317.123	398.5
317.199	458.2
317.275	331.92
317.352	359.47
317.428	364.06
317.504	320.44
317.581	382.43
317.657	442.13
317.733	387.02
317.81	416.87
317.886	359.47
317.962	393.91
318.038	396.21
318.115	350.28
318.191	403.09
318.267	442.13
318.343	327.32
318.419	373.25
318.496	409.98
318.572	437.53
318.648	382.43
318.724	453.61
318.8	407.69
318.876	375.54
318.952	320.44
319.028	407.69
319.105	407.69
319.181	421.46
319.257	437.53
319.333	391.61
319.409	467.38
319.485	375.54
319.561	359.47
319.637	329.62
319.713	453.61
319.789	478.86
319.865	405.39
319.94	414.57
320.016	428.35
320.092	380.13
320.168	419.17
320.244	460.49
320.32	405.39
320.396	357.17
320.472	357.17
320.547	361.77
320.623	373.25
320.699	432.94
320.775	391.61
320.851	432.94
320.926	439.83
321.002	384.73
321.078	368.65
321.154	407.69
321.229	437.53
321.305	405.39
321.381	400.8
321.456	423.76
321.532	421.46
321.608	334.21
321.683	400.8
321.759	389.32
321.835	419.17
321.91	345.69
321.986	426.05
322.061	407.69
322.137	375.54
322.212	352.58
322.288	389.32
322.364	393.91
322.439	421.46
322.515	391.61
322.59	375.54
322.666	453.61
322.741	460.49
322.816	382.43
322.892	435.24
322.967	442.13
323.043	430.65
323.118	465.09
323.193	467.38
323.269	458.2
323.344	428.35
323.42	428.35
323.495	449.01
323.57	442.13
323.646	414.57
323.721	439.83
323.796	426.05
323.871	451.31
323.947	377.84
324.022	405.39
324.097	455.9
324.172	412.28
324.248	442.13
324.323	428.35
324.398	419.17
324.473	352.58
324.548	460.49
324.623	432.94
324.699	370.95
324.774	366.36
324.849	375.54
324.924	451.31
324.999	396.21
325.074	398.5
325.149	387.02
325.224	455.9
325.299	419.17
325.374	451.31
325.449	389.32
325.524	414.57
325.599	412.28
325.674	416.87
325.749	437.53
325.824	412.28
325.899	377.84
325.974	368.65
326.049	389.32
326.124	426.05
326.199	391.61
326.273	400.8
326.348	405.39
326.423	421.46
326.498	403.09
326.573	389.32
326.648	421.46
326.722	409.98
326.797	405.39
326.872	345.69
326.947	403.09
327.021	359.47
327.096	384.73
327.171	455.9
327.245	357.17
327.32	368.65
327.395	419.17
327.47	387.02
327.544	471.97
327.619	437.53
327.693	382.43
327.768	426.05
327.843	400.8
327.917	504.12
327.992	389.32
328.066	416.87
328.141	416.87
328.215	389.32
328.29	396.21
328.364	426.05
328.439	416.87
328.513	453.61
328.588	407.69
328.662	442.13
328.737	407.69
328.811	435.24
328.886	449.01
328.96	403.09
329.035	451.31
329.109	384.73
329.183	398.5
329.258	396.21
329.332	428.35
329.406	442.13
329.481	405.39
329.555	370.95
329.629	423.76
329.704	393.91
329.778	400.8
329.852	377.84
329.926	426.05
330.001	432.94
330.075	442.13
330.149	380.13
330.223	359.47
330.297	389.32
330.372	396.21
330.446	442.13
330.52	412.28
330.594	382.43
330.668	398.5
330.742	414.57
330.816	419.17
330.89	423.76
330.964	435.24
331.038	426.05
331.113	451.31
331.187	366.36
331.261	405.39
331.335	430.65
331.409	384.73
331.483	387.02
331.557	364.06
331.63	437.53
331.704	350.28
331.778	414.57
331.852	414.57
331.926	398.5
332	380.13
332.074	405.39
332.148	446.72
332.222	354.88
332.295	334.21
332.369	338.8
332.443	488.05
332.517	481.16
332.591	325.03
332.665	393.91
332.738	442.13
332.812	437.53
332.886	481.16
332.959	430.65
333.033	405.39
333.107	432.94
333.181	352.58
333.254	389.32
333.328	405.39
333.402	437.53
333.475	446.72
333.549	370.95
333.622	416.87
333.696	478.86
333.77	430.65
333.843	421.46
333.917	389.32
333.99	398.5
334.064	345.69
334.137	432.94
334.211	419.17
334.284	393.91
334.358	361.77
334.431	393.91
334.505	391.61
334.578	403.09
334.652	382.43
334.725	407.69
334.799	400.8
334.872	426.05
334.945	423.76
335.019	393.91
335.092	393.91
335.165	444.42
335.239	430.65
335.312	437.53
335.385	382.43
335.459	373.25
335.532	389.32
335.605	345.69
335.678	407.69
335.752	325.03
335.825	403.09
335.898	398.5
335.971	416.87
336.045	380.13
336.118	370.95
336.191	428.35
336.264	370.95
336.337	384.73
336.41	462.79
336.483	403.09
336.557	352.58
336.63	343.4
336.703	437.53
336.776	361.77
336.849	387.02
336.922	416.87
336.995	412.28
337.068	416.87
337.141	403.09
337.214	396.21
337.287	366.36
337.36	396.21
337.433	416.87
337.506	414.57
337.579	414.57
337.652	419.17
337.725	341.1
337.797	403.09
337.87	387.02
337.943	446.72
338.016	439.83
338.089	400.8
338.162	382.43
338.235	405.39
338.307	416.87
338.38	423.76
338.453	426.05
338.526	421.46
338.598	373.25
338.671	426.05
338.744	382.43
338.817	449.01
338.889	428.35
338.962	384.73
339.035	444.42
339.107	421.46
339.18	432.94
339.253	412.28
339.325	460.49
339.398	403.09
339.47	465.09
339.543	364.06
339.616	377.84
339.688	437.53
339.761	442.13
339.833	476.57
339.906	412.28
339.978	428.35
340.051	471.97
340.123	373.25
340.196	428.35
340.268	387.02
340.341	444.42
340.413	361.77
340.485	403.09
340.558	352.58
340.63	373.25
340.703	435.24
340.775	430.65
340.847	428.35
340.92	384.73
340.992	403.09
341.064	334.21
341.137	400.8
341.209	421.46
341.281	387.02
341.354	364.06
341.426	393.91
341.498	380.13
341.57	409.98
341.643	409.98
341.715	426.05
341.787	423.76
341.859	380.13
341.931	347.99
342.003	375.54
342.076	384.73
342.148	377.84
342.22	430.65
342.292	428.35
342.364	409.98
342.436	414.57
342.508	400.8
342.58	396.21
342.652	403.09
342.724	398.5
342.796	405.39
342.868	416.87
342.94	405.39
343.012	451.31
343.084	435.24
343.156	368.65
343.228	426.05
343.3	423.76
343.372	465.09
343.444	449.01
343.516	382.43
343.588	384.73
343.66	400.8
343.731	439.83
343.803	368.65
343.875	389.32
343.947	446.72
344.019	375.54
344.09	442.13
344.162	400.8
344.234	430.65
344.306	403.09
344.377	423.76
344.449	428.35
344.521	435.24
344.593	396.21
344.664	469.68
344.736	414.57
344.808	471.97
344.879	444.42
344.951	409.98
345.023	382.43
345.094	465.09
345.166	490.34
345.237	462.79
345.309	370.95
345.38	485.75
345.452	412.28
345.524	389.32
345.595	403.09
345.667	407.69
345.738	396.21
345.81	432.94
345.881	439.83
345.953	419.17
346.024	407.69
346.095	400.8
346.167	478.86
346.238	428.35
346.31	481.16
346.381	426.05
346.452	380.13
346.524	446.72
346.595	430.65
346.666	384.73
346.738	439.83
346.809	421.46
346.88	476.57
346.952	382.43
347.023	428.35
347.094	414.57
347.165	368.65
347.237	382.43
347.308	407.69
347.379	393.91
347.45	419.17
347.521	428.35
347.593	389.32
347.664	462.79
347.735	382.43
347.806	439.83
347.877	403.09
347.948	435.24
348.019	357.17
348.09	375.54
348.161	382.43
348.233	428.35
348.304	416.87
348.375	442.13
348.446	442.13
348.517	380.13
348.588	416.87
348.659	458.2
348.73	409.98
348.801	368.65
348.871	481.16
348.942	393.91
349.013	368.65
349.084	458.2
349.155	391.61
349.226	430.65
349.297	405.39
349.368	364.06
349.439	437.53
349.509	393.91
349.58	414.57
349.651	451.31
349.722	439.83
349.793	352.58
349.863	428.35
349.934	391.61
350.005	354.88
350.076	387.02
350.146	407.69
350.217	393.91
350.288	439.83
350.358	426.05
350.429	409.98
350.5	416.87
350.57	396.21
350.641	465.09
350.711	380.13
350.782	467.38
350.853	421.46
350.923	387.02
350.994	407.69
351.064	412.28
351.135	391.61
351.205	409.98
351.276	469.68
351.346	407.69
351.417	428.35
351.487	398.5
351.558	403.09
351.628	474.27
351.699	449.01
351.769	398.5
351.84	504.12
351.91	414.57
351.98	426.05
352.051	428.35
352.121	435.24
352.191	414.57
352.262	387.02
352.332	384.73
352.402	462.79
352.473	398.5
352.543	419.17
352.613	341.1
352.683	391.61
352.754	439.83
352.824	366.36
352.894	403.09
352.964	405.39
353.035	453.61
353.105	428.35
353.175	442.13
353.245	382.43
353.315	465.09
353.385	435.24
353.455	393.91
353.526	432.94
353.596	416.87
353.666	462.79
353.736	407.69
353.806	382.43
353.876	382.43
353.946	416.87
354.016	416.87
354.086	435.24
354.156	407.69
354.226	375.54
354.296	435.24
354.366	329.62
354.436	389.32
354.506	357.17
354.576	400.8
354.645	416.87
354.715	478.86
354.785	347.99
354.855	469.68
354.925	471.97
354.995	352.58
355.065	391.61
355.134	414.57
355.204	455.9
355.274	471.97
355.344	357.17
355.414	439.83
355.483	442.13
355.553	485.75
355.623	384.73
355.693	460.49
355.762	428.35
355.832	432.94
355.902	446.72
355.971	409.98
356.041	409.98
356.111	361.77
356.18	405.39
356.25	430.65
356.319	444.42
356.389	416.87
356.459	435.24
356.528	446.72
356.598	483.45
356.667	416.87
356.737	412.28
356.806	430.65
356.876	430.65
356.945	407.69
357.015	444.42
357.084	423.76
357.154	350.28
357.223	414.57
357.292	435.24
357.362	449.01
357.431	465.09
357.501	423.76
357.57	446.72
357.639	384.73
357.709	446.72
357.778	444.42
357.847	488.05
357.917	389.32
357.986	400.8
358.055	412.28
358.124	430.65
358.194	478.86
358.263	398.5
358.332	389.32
358.401	465.09
358.471	419.17
358.54	428.35
358.609	513.3
358.678	380.13
358.747	471.97
358.816	398.5
358.886	366.36
358.955	409.98
359.024	389.32
359.093	444.42
359.162	435.24
359.231	354.88
359.3	430.65
359.369	320.44
359.438	494.93
359.507	449.01
359.576	338.8
359.645	474.27
359.714	428.35
359.783	400.8
359.852	455.9
359.921	465.09
359.99	449.01
360.059	403.09
360.128	471.97
360.197	476.57
360.266	476.57
360.334	446.72
360.403	409.98
360.472	485.75
360.541	396.21
360.61	474.27
360.679	393.91
360.747	439.83
360.816	446.72
360.885	391.61
360.954	453.61
361.022	506.41
361.091	432.94
361.16	481.16
361.228	444.42
361.297	435.24
361.366	432.94
361.434	442.13
361.503	426.05
361.572	426.05
361.64	384.73
361.709	478.86
361.778	414.57
361.846	393.91
361.915	389.32
361.983	469.68
362.052	446.72
362.12	396.21
362.189	460.49
362.257	421.46
362.326	451.31
362.394	398.5
362.463	419.17
362.531	428.35
362.6	409.98
362.668	396.21
362.737	416.87
362.805	444.42
362.873	462.79
362.942	453.61
363.01	432.94
363.079	453.61
363.147	467.38
363.215	426.05
363.284	462.79
363.352	469.68
363.42	481.16
363.488	414.57
363.557	444.42
363.625	444.42
363.693	423.76
363.761	389.32
363.83	423.76
363.898	435.24
363.966	407.69
364.034	419.17
364.102	449.01
364.171	483.45
364.239	430.65
364.307	439.83
364.375	462.79
364.443	432.94
364.511	380.13
364.579	396.21
364.647	400.8
364.715	508.71
364.783	396.21
364.851	412.28
364.919	469.68
364.987	435.24
365.055	471.97
365.123	442.13
365.191	442.13
365.259	488.05
365.327	471.97
365.395	435.24
365.463	377.84
365.531	391.61
365.599	465.09
365.667	439.83
365.735	370.95
365.802	396.21
365.87	430.65
365.938	421.46
366.006	455.9
366.074	462.79
366.142	419.17
366.209	387.02
366.277	451.31
366.345	426.05
366.413	426.05
366.48	444.42
366.548	511.01
366.616	423.76
366.683	481.16
366.751	471.97
366.819	435.24
366.886	545.45
366.954	497.23
367.022	421.46
367.089	458.2
367.157	439.83
367.224	403.09
367.292	419.17
367.36	414.57
367.427	409.98
367.495	419.17
367.562	446.72
367.63	490.34
367.697	419.17
367.765	499.53
367.832	439.83
367.9	499.53
367.967	471.97
368.034	485.75
368.102	471.97
368.169	469.68
368.237	403.09
368.304	444.42
368.371	432.94
368.439	453.61
368.506	409.98
368.573	400.8
368.641	467.38
368.708	442.13
368.775	462.79
368.843	393.91
368.91	499.53
368.977	442.13
369.044	409.98
369.112	439.83
369.179	442.13
369.246	412.28
369.313	474.27
369.38	513.3
369.448	423.76
369.515	423.76
369.582	442.13
369.649	471.97
369.716	460.49
369.783	488.05
369.85	460.49
369.917	400.8
369.984	504.12
370.052	428.35
370.119	465.09
370.186	501.82
370.253	412.28
370.32	442.13
370.387	389.32
370.454	453.61
370.521	444.42
370.587	428.35
370.654	451.31
370.721	471.97
370.788	490.34
370.855	494.93
370.922	522.49
370.989	428.35
371.056	430.65
371.123	499.53
371.189	432.94
371.256	469.68
371.323	416.87
371.39	483.45
371.457	522.49
371.523	492.64
371.59	488.05
371.657	462.79
371.724	481.16
371.79	465.09
371.857	439.83
371.924	391.61
371.991	545.45
372.057	430.65
372.124	481.16
372.191	497.23
372.257	449.01
372.324	504.12
372.39	483.45
372.457	439.83
372.524	524.78
372.59	492.64
372.657	483.45
372.723	522.49
372.79	533.97
372.856	501.82
372.923	550.04
372.989	595.96
373.056	529.37
373.122	520.19
373.189	559.22
373.255	511.01
373.322	492.64
373.388	494.93
373.454	467.38
373.521	515.6
373.587	568.41
373.654	527.08
373.72	543.15
373.786	483.45
373.853	492.64
373.919	561.52
373.985	458.2
374.052	524.78
374.118	517.89
374.184	504.12
374.25	511.01
374.317	533.97
374.383	469.68
374.449	522.49
374.515	515.6
374.581	517.89
374.648	570.7
374.714	497.23
374.78	497.23
374.846	488.05
374.912	517.89
374.978	584.48
375.044	533.97
375.11	538.56
375.177	533.97
375.243	600.55
375.309	494.93
375.375	533.97
375.441	554.63
375.507	566.11
375.573	609.73
375.639	561.52
375.705	575.29
375.771	573
375.837	522.49
375.903	573
375.968	579.89
376.034	527.08
376.1	540.85
376.166	598.25
376.232	600.55
376.298	589.07
376.364	554.63
376.43	556.93
376.495	616.62
376.561	586.77
376.627	547.74
376.693	573
376.759	609.73
376.824	589.07
376.89	653.36
376.956	609.73
377.022	646.47
377.087	591.37
377.153	598.25
377.219	634.99
377.284	678.61
377.35	669.43
377.416	628.1
377.481	648.77
377.547	694.69
377.613	653.36
377.678	708.46
377.744	706.17
377.809	618.92
377.875	669.43
377.94	625.81
378.006	740.61
378.071	625.81
378.137	719.94
378.202	713.05
378.268	731.42
378.333	674.02
378.399	726.83
378.464	811.78
378.53	729.13
378.595	756.68
378.661	719.94
378.726	676.32
378.791	770.45
378.857	811.78
378.922	820.97
378.987	866.89
379.053	802.6
379.118	786.53
379.183	876.07
379.249	765.86
379.314	816.37
379.379	825.56
379.444	843.93
379.51	807.19
379.575	830.15
379.64	892.14
379.705	832.45
379.771	864.59
379.836	860
379.901	862.3
379.966	873.78
380.031	848.52
380.096	901.33
380.161	963.32
380.227	887.55
380.292	965.62
380.357	963.32
380.422	942.66
380.487	983.98
380.552	990.87
380.617	1057.46
380.682	993.17
380.747	958.73
380.812	1089.6
380.877	979.39
380.942	1057.46
381.007	1043.68
381.072	981.69
381.137	1041.38
381.202	1179.14
381.266	1089.6
381.331	1096.49
381.396	1140.11
381.461	1082.71
381.526	1156.18
381.591	1165.37
381.656	1220.47
381.72	1296.24
381.785	1167.66
381.85	1268.69
381.915	1186.03
381.979	1231.95
382.044	1254.91
382.109	1323.79
382.174	1374.31
382.238	1365.12
382.303	1319.2
382.368	1454.67
382.432	1434
382.497	1399.56
382.562	1546.51
382.626	1477.63
382.691	1491.4
382.756	1489.11
382.82	1500.59
382.885	1592.43
382.949	1622.27
383.014	1569.47
383.078	1544.21
383.143	1642.94
383.208	1698.04
383.272	1679.67
383.337	1691.15
383.401	1737.07
383.465	1723.3
383.53	1746.26
383.594	1769.22
383.659	1819.73
383.723	1842.69
383.788	1936.83
383.852	1805.95
383.916	1955.2
383.981	1994.23
384.045	2065.4
384.109	2058.52
384.174	2143.47
384.238	2090.66
384.302	2095.25
384.367	2099.84
384.431	2228.42
384.495	2216.94
384.56	2391.44
384.624	2242.2
384.688	2331.74
384.752	2359.29
384.816	2396.03
384.881	2400.62
384.945	2370.77
385.009	2503.94
385.073	2559.05
385.137	2614.15
385.201	2611.85
385.265	2641.7
385.33	2694.51
385.394	2745.02
385.458	2795.54
385.522	2910.34
385.586	2951.66
385.65	3006.77
385.714	2986.1
385.778	3020.54
385.842	3178.97
385.906	3218
385.97	3167.49
386.034	3284.59
386.098	3459.08
386.162	3385.61
386.226	3323.62
386.29	3449.9
386.354	3544.03
386.417	3576.18
386.481	3635.87
386.545	3596.84
386.609	3672.61
386.673	3757.56
386.737	3929.76
386.8	3808.08
386.864	4003.24
386.928	3918.28
386.992	4129.52
387.056	4198.4
387.119	4269.57
387.183	4294.83
387.247	4393.56
387.31	4494.58
387.374	4501.47
387.438	4386.67
387.502	4701.22
387.565	4696.63
387.629	4962.97
387.692	4822.91
387.756	4907.86
387.82	5158.13
387.883	5220.12
387.947	5091.54
388.01	5139.76
388.074	5224.71
388.138	5486.46
388.201	5550.75
388.265	5656.36
388.328	5826.27
388.392	5842.34
388.455	5895.15
388.519	6110.97
388.582	6117.86
388.645	6037.5
388.709	6251.03
388.772	6453.08
388.836	6418.64
388.899	6655.13
388.962	6680.38
389.026	6850.29
389.089	6960.5
389.153	6861.77
389.216	7180.91
389.279	7350.82
389.343	7302.6
389.406	7550.57
389.469	7674.56
389.532	7559.75
389.596	7869.72
389.659	7991.4
389.722	8147.53
389.785	8140.65
389.848	8441.42
389.912	8468.97
389.975	8505.71
390.038	8868.48
390.101	8870.78
390.164	9061.35
390.227	9245.03
390.291	9304.72
390.354	9486.11
390.417	9442.48
390.48	9637.64
390.543	10032.56
390.606	9929.24
390.669	10034.85
390.732	10452.73
390.795	10551.46
390.858	10735.14
390.921	10866.01
390.984	10652.48
391.047	11109.39
391.11	11196.63
391.173	11357.35
391.236	11582.36
391.299	11637.47
391.362	11768.34
391.424	11991.05
391.487	12278.05
391.55	12569.65
391.613	12702.82
391.676	12948.49
391.739	13164.31
391.802	13175.79
391.864	13439.84
391.927	13616.63
391.99	13777.35
392.053	14105.68
392.115	14064.35
392.178	13885.26
392.241	14606.21
392.304	14631.46
392.366	14805.96
392.429	14936.83
392.492	15283.53
392.554	15414.4
392.617	15591.2
392.68	15816.21
392.742	16071.06
392.805	16252.45
392.867	16429.24
392.93	16805.79
392.992	16730.02
393.055	16899.92
393.118	17338.46
393.18	17317.8
393.243	17712.71
393.305	17816.03
393.368	18015.78
393.43	18135.17
393.493	18780.35
393.555	18807.91
393.618	18805.61
393.68	19225.78
393.742	19459.97
393.805	19838.81
393.867	19499
393.93	20135
393.992	20506.95
394.054	20573.54
394.117	20725.07
394.179	21418.47
394.241	21351.88
394.304	21703.17
394.366	22070.54
394.428	22169.26
394.49	22502.18
394.553	22594.03
394.615	23030.27
394.677	23402.22
394.739	23613.45
394.802	23861.42
394.864	23852.24
394.926	24231.08
394.988	24880.85
395.05	25216.07
395.112	25780.89
395.174	25610.98
395.237	25893.39
395.299	26244.68
395.361	26660.26
395.423	26974.81
395.485	26807.2
395.547	27110.28
395.609	27688.87
395.671	27815.15
395.733	28086.08
395.795	28453.44
395.857	28480.99
395.919	28480.99
395.981	29640.48
396.043	29665.73
396.105	29831.05
396.167	29909.11
396.229	30777
396.291	31275.24
396.352	31282.13
396.414	31442.85
396.476	31973.22
396.538	32453.09
396.6	32859.48
396.662	33261.29
396.724	33635.54
396.785	33874.32
396.847	33681.46
396.909	34303.67
396.971	34558.53
397.032	34664.15
397.094	34843.24
397.156	35375.91
397.218	34941.96
397.279	35653.73
397.341	35665.21
397.403	36810.92
397.464	36645.6
397.526	37001.49
397.588	37270.12
397.649	37777.54
397.711	37559.42
397.772	38156.38
397.834	38675.28
397.896	38349.24
397.957	39320.45
398.019	39719.96
398.08	40023.03
398.142	39984
398.203	40417.95
398.265	41102.16
398.326	41030.98
398.388	40815.16
398.449	41437.38
398.511	41880.51
398.572	41850.66
398.633	43145.61
398.695	42757.58
398.756	42730.03
398.818	43166.27
398.879	43703.54
398.94	44038.75
399.002	44454.33
399.063	44647.2
399.124	44722.97
399.186	45556.42
399.247	45673.51
399.308	46203.89
399.369	46213.08
399.431	46236.04
399.492	47370.26
399.553	47289.9
399.614	47689.41
399.676	47758.29
399.737	48160.09
399.798	48286.37
399.859	48846.6
399.92	48876.45
399.981	49576.73
400.042	49673.16
400.104	49882.1
400.165	49941.79
400.226	50541.05
400.287	50306.86
400.348	50690.29
400.409	51163.27
400.47	51381.39
400.531	51624.77
400.592	51700.54
400.653	52426.08
400.714	51849.78
400.775	51966.88
400.836	52460.52
400.897	52669.45
400.958	53202.13
401.019	53119.47
401.08	52706.19
401.141	53277.9
401.201	53438.62
401.262	53186.06
401.323	53805.98
401.384	54122.83
401.445	53732.51
401.506	54423.61
401.567	54669.28
401.627	54754.23
401.688	54963.17
401.749	55222.62
401.81	54655.5
401.87	55392.52
401.931	55624.42
401.992	56113.47
402.053	55523.39
402.113	56042.29
402.174	56439.5
402.235	56320.11
402.295	56129.54
402.356	56343.07
402.417	56262.71
402.477	56839.01
402.538	56705.84
402.598	56829.82
402.659	57029.58
402.719	56864.26
402.78	57378.57
402.841	57431.38
402.901	57240.81
402.962	57367.09
403.022	57440.56
403.083	57853.84
403.143	57996.2
403.204	58464.58
403.264	58202.84
403.324	58437.03
403.385	58418.66
403.445	58471.47
403.506	58664.33
403.566	58381.93
403.627	58572.49
403.687	58600.05
403.747	58965.11
403.808	59112.06
403.868	58967.41
403.928	59676.88
403.989	59102.87
404.049	59254.41
404.109	59286.55
404.169	59144.2
404.23	59587.33
404.29	59438.09
404.35	59963.88
404.41	59796.27
404.47	60060.31
404.531	59711.32
404.591	59991.43
404.651	60101.64
404.711	60331.24
404.771	60053.42
404.831	60296.8
404.892	60266.95
404.952	60533.29
405.012	60239.4
405.072	60207.25
405.132	60283.02
405.192	60248.58
405.252	60345.01
405.312	60110.82
405.372	60664.16
405.432	60317.46
405.492	60482.77
405.552	60595.28
405.612	60234.81
405.672	60530.99
405.732	60622.83
405.792	60599.87
405.852	60758.3
405.912	60558.54
405.971	60519.51
406.031	60813.4
406.091	60797.33
406.151	61013.15
406.211	61157.8
406.271	60815.7
406.33	60921.31
406.39	60519.51
406.45	60393.23
406.51	60790.44
406.57	60505.73
406.629	60641.2
406.689	60847.84
406.749	60579.21
406.808	60501.14
406.868	60556.25
406.928	60312.87
406.988	60434.56
407.047	60661.86
407.107	60705.49
407.166	60471.29
407.226	60514.92
407.286	60393.23
407.345	60588.39
407.405	60652.68
407.464	60898.35
407.524	60813.4
407.584	60450.63
407.643	60404.71
407.703	60253.17
407.762	60248.58
407.822	60260.06
407.881	60014.39
407.941	60028.16
408	60333.53
408.059	60193.48
408.119	60443.74
408.178	59998.32
408.238	60000.61
408.297	60090.16
408.356	60060.31
408.416	59998.32
408.475	59881.22
408.535	59771.01
408.594	59642.44
408.653	60012.09
408.712	59862.85
408.772	59348.55
408.831	59518.45
408.89	59440.39
408.95	59410.54
409.009	59045.47
409.068	59036.29
409.127	58992.66
409.186	58779.14
409.246	58742.4
409.305	58880.16
409.364	58811.28
409.423	58873.27
409.482	58664.33
409.541	58420.96
409.6	58471.47
409.66	57964.05
409.719	58124.77
409.778	58133.96
409.837	58150.03
409.896	57922.72
409.955	57835.48
410.014	57548.47
410.073	57557.66
410.132	57132.9
410.191	57181.11
410.25	57160.45
410.309	56965.29
410.368	57024.98
410.427	56763.24
410.486	57052.54
410.545	56933.14
410.603	56632.37
410.662	56552.01
410.721	56439.5
410.78	56414.25
410.839	56230.56
410.898	56159.39
410.957	55801.21
411.015	55433.85
411.074	55273.13
411.133	54616.47
411.192	54784.08
411.25	54274.36
411.309	54761.12
411.368	54414.42
411.427	54265.18
411.485	54150.38
411.544	54230.74
411.603	53739.39
411.661	53544.23
411.72	53601.63
411.779	53420.25
411.837	52984.01
411.896	53018.45
411.955	52501.85
412.013	51920.95
412.072	51925.55
412.13	51716.61
412.189	51179.34
412.247	50782.13
412.306	50837.24
412.364	50426.25
412.423	50421.66
412.481	49804.03
412.54	50355.08
412.598	49193.3
412.657	49354.02
412.715	48777.72
412.774	48295.56
412.832	48603.22
412.891	49005.02
412.949	48557.3
413.007	47845.54
413.066	47673.34
413.124	47482.77
413.182	46780.19
413.241	46729.68
413.299	45795.2
413.357	46004.14
413.416	45356.66
413.474	44807.92
413.532	44520.92
413.59	44261.47
413.649	43790.79
413.707	43462.46
413.765	43115.76
413.823	43242.04
413.881	42443.03
413.94	42247.87
413.998	41804.74
414.056	41180.22
414.114	40895.52
414.172	40335.29
414.23	40204.42
414.288	39497.25
414.347	39869.2
414.405	38656.91
414.463	38307.91
414.521	38085.2
414.579	37731.62
414.637	36448.15
414.695	36732.85
414.753	36218.55
414.811	35584.85
414.869	35219.78
414.927	34889.16
414.985	34512.61
415.043	34365.67
415.101	33993.71
415.158	33596.5
415.216	33573.54
415.274	32820.45
415.332	32682.69
415.39	31987
415.448	32136.24
415.506	31642.6
415.563	31458.92
415.621	30921.65
415.679	30671.39
415.737	30781.6
415.795	30242.03
415.852	30274.18
415.91	29955.03
415.968	30044.58
416.026	29479.76
416.083	29730.02
416.141	28556.76
416.199	29116.99
416.256	28767.99
416.314	28774.88
416.372	28375.38
416.429	28350.12
416.487	27895.51
416.544	28120.52
416.602	27723.31
416.66	27390.39
416.717	27172.27
416.775	26651.07
416.832	26832.46
416.89	26669.44
416.947	26798.02
417.005	26292.9
417.062	26350.3
417.12	25668.38
417.177	25284.95
417.235	25372.2
417.292	24848.71
417.35	24977.28
417.407	24366.54
417.464	24407.87
417.522	24414.76
417.579	24157.61
417.637	24097.91
417.694	23902.75
417.751	23771.88
417.809	23376.96
417.866	23468.8
417.923	23420.59
417.981	23119.81
418.038	22633.06
418.095	22674.39
418.152	22559.59
418.21	22272.58
418.267	22192.22
418.324	21755.98
418.381	21804.2
418.438	20938.6
418.496	21285.3
418.553	20989.11
418.61	20761.81
418.667	20688.34
418.724	20490.88
418.781	20314.09
418.838	20291.13
418.895	20089.08
418.952	20102.85
419.01	19701.05
419.067	19503.6
419.124	18853.83
419.181	18711.47
419.238	18360.18
419.295	18828.57
419.352	18403.81
419.409	18222.42
419.466	18160.43
419.523	17997.41
419.579	17795.37
419.636	17799.96
419.693	17556.58
419.75	17297.13
419.807	17232.84
419.864	17131.82
419.921	16817.27
419.978	16938.95
420.034	16819.56
420.091	16465.98
420.148	16764.46
420.205	16137.65
420.262	16121.57
420.318	15722.07
420.375	15650.89
420.432	15552.16
420.489	15012.6
420.545	15180.21
420.602	15049.34
420.659	14796.78
420.715	14817.44
420.772	14376.61
420.829	13882.97
420.885	14009.25
420.942	13823.27
420.999	13563.82
421.055	13449.02
421.112	13196.46
421.168	13044.92
421.225	12647.71
421.282	12546.69
421.338	12590.31
421.395	12335.45
421.451	12209.17
421.508	12340.05
421.564	12404.33
421.621	12115.04
421.677	12115.04
421.734	11832.63
421.79	11846.4
421.846	11616.8
421.903	11449.2
421.959	11311.43
422.016	11157.6
422.072	11164.49
422.128	11077.24
422.185	10960.14
422.241	10675.44
422.297	10452.73
422.354	10533.09
422.41	10264.45
422.466	10252.97
422.523	9982.04
422.579	9998.12
422.635	10094.55
422.691	9646.83
422.748	9903.98
422.804	9731.78
422.86	9435.59
422.916	9189.92
422.972	9311.61
423.029	9146.3
423.085	9008.54
423.141	9008.54
423.197	8783.53
423.253	8744.5
423.309	8836.34
423.365	8629.7
423.421	8583.78
423.477	8328.92
423.533	8340.4
423.589	8179.68
423.645	7989.11
423.701	7892.68
423.757	7826.09
423.813	7853.64
423.869	7718.18
423.925	7509.24
423.981	7621.75
424.037	7252.09
424.093	7293.42
424.149	7226.83
424.205	7139.59
424.261	7215.35
424.317	6983.46
424.373	6926.06
424.428	7013.3
424.484	6786
424.54	6648.24
424.596	6694.16
424.652	6517.37
424.708	6547.21
424.763	6324.5
424.819	6402.57
424.875	6182.15
424.931	6147.71
424.986	6159.19
425.042	6115.56
425.098	6182.15
425.153	5966.32
425.209	5959.44
425.265	6106.38
425.32	5902.04
425.376	5934.18
425.432	5766.57
425.487	5828.56
425.543	5736.72
425.598	5569.11
425.654	5695.4
425.709	5488.75
425.765	5481.87
425.82	5486.46
425.876	5486.46
425.932	5346.4
425.987	5504.83
426.042	5268.34
426.098	5224.71
426.153	5252.27
426.209	5130.58
426.264	5197.16
426.32	5192.57
426.375	4960.67
426.43	5116.8
426.486	4985.93
426.541	4933.12
426.597	5050.22
426.652	4988.22
426.707	4951.49
426.763	4900.98
426.818	4891.79
426.873	4855.06
426.928	4859.65
426.984	4763.22
427.039	4724.18
427.094	4710.41
427.149	4609.38
427.205	4694.33
427.26	4471.62
427.315	4682.85
427.37	4441.77
427.425	4556.57
427.48	4483.1
427.536	4671.37
427.591	4542.8
427.646	4434.89
427.701	4395.85
427.756	4180.03
427.811	4205.28
427.866	4150.18
427.921	4170.84
427.976	4118.04
428.031	4138.7
428.086	4037.68
428.141	3973.39
428.196	3996.35
428.251	3948.13
428.306	3975.68
428.361	3851.7
428.416	3824.15
428.471	3932.06
428.526	3794.3
428.581	3697.87
428.636	3847.11
428.691	3672.61
428.745	3739.2
428.8	3716.23
428.855	3727.71
428.91	3665.72
428.965	3661.13
429.02	3601.43
429.074	3465.97
429.129	3463.67
429.184	3606.03
429.239	3475.15
429.293	3376.43
429.348	3534.85
429.403	3238.66
429.457	3374.13
429.512	3410.87
429.567	3309.84
429.621	3266.22
429.676	3185.86
429.731	3162.9
429.785	3268.51
429.84	3185.86
429.895	3112.38
429.949	2981.51
430.004	3162.9
430.058	3022.84
430.113	2995.29
430.167	3022.84
430.222	2910.34
430.276	2960.85
430.331	2981.51
430.385	2935.59
430.44	2912.63
430.494	2889.67
430.549	2666.96
430.603	2836.86
430.657	2901.15
430.712	2834.57
430.766	2836.86
430.821	2726.65
430.875	2623.33
430.929	2802.42
430.984	2694.51
431.038	2683.03
431.092	2531.49
431.147	2593.49
431.201	2733.54
431.255	2680.73
431.309	2568.23
431.364	2611.85
431.418	2460.32
431.472	2464.91
431.526	2522.31
431.581	2483.28
431.635	2400.62
431.689	2370.77
431.743	2414.4
431.797	2469.5
431.851	2418.99
431.906	2423.58
431.96	2361.59
432.014	2315.67
432.068	2214.64
432.122	2267.45
432.176	2255.97
432.23	2237.6
432.284	2228.42
432.338	2324.85
432.392	2154.95
432.446	2171.02
432.5	2212.35
432.554	2239.9
432.608	2150.36
432.662	2230.72
432.716	2120.51
432.77	2090.66
432.824	2058.52
432.878	1897.8
432.931	2017.19
432.985	2044.74
433.039	2060.81
433.093	1948.31
433.147	1927.64
433.201	1996.52
433.254	1936.83
433.308	1909.28
433.362	1870.24
433.416	1934.53
433.47	1886.32
433.523	1879.43
433.577	1893.2
433.631	1863.36
433.684	1789.88
433.738	1812.84
433.792	1822.03
433.846	1764.63
433.899	1746.26
433.953	1714.11
434.006	1780.7
434.06	1766.92
434.114	1718.71
434.167	1718.71
434.221	1718.71
