Data from FLMS155811_12-04-54-146.txt Node
Date: Mon Mar 25 12:04:54 MDT 2024
User: andh57
Spectrometer: FLMS15581
Trigger mode: 0
Integration Time (sec): 5.154490E-1
Scans to average: 4
Electric dark correction enabled: true
Nonlinearity correction enabled: false
Boxcar width: 0
XAxis mode: Wavelengths
Number of Pixels in Spectrum: 2048
>>>>>Begin Spectral Data<<<<<
298.026	-10.4
298.106	-10.4
298.185	-10.4
298.265	-63.21
298.344	-47.14
298.424	-85.6
298.503	-63.79
298.583	-25.9
298.662	-61.49
298.741	-54.6
298.821	-34.51
298.9	-23.03
298.98	-4.09
299.059	-29.92
299.138	-28.77
299.217	-16.72
299.297	59.62
299.376	51.59
299.455	89.47
299.535	90.05
299.614	137.69
299.693	133.1
299.772	150.32
299.852	165.81
299.931	183.04
300.01	206.57
300.089	199.68
300.168	262.25
300.247	251.92
300.327	303.58
300.406	268.56
300.485	319.07
300.564	278.32
300.643	290.95
300.722	342.03
300.801	343.18
300.88	336.29
300.959	360.4
301.038	399.43
301.117	363.85
301.196	354.09
301.275	356.38
301.354	362.7
301.433	398.29
301.512	373.6
301.591	420.67
301.67	381.64
301.749	432.73
301.828	380.49
301.907	368.44
301.985	397.71
302.064	381.64
302.143	408.04
302.222	398.86
302.301	401.73
302.38	359.83
302.458	390.25
302.537	365.57
302.616	397.71
302.695	399.43
302.773	391.4
302.852	344.33
302.931	369.01
303.01	371.31
303.088	352.37
303.167	327.68
303.246	373.03
303.324	347.2
303.403	367.86
303.481	382.79
303.56	383.36
303.639	348.35
303.717	363.27
303.796	393.69
303.874	333.42
303.953	387.95
304.032	341.46
304.11	343.18
304.189	364.42
304.267	362.12
304.346	329.41
304.424	367.29
304.502	350.64
304.581	338.02
304.659	329.98
304.738	343.76
304.816	329.41
304.895	340.89
304.973	364.42
305.051	360.98
305.13	335.15
305.208	369.01
305.286	344.9
305.365	340.89
305.443	327.11
305.521	360.4
305.6	355.81
305.678	377.05
305.756	391.97
305.834	388.53
305.913	340.31
305.991	356.96
306.069	361.55
306.147	328.83
306.225	346.63
306.304	380.49
306.382	401.16
306.46	360.4
306.538	339.16
306.616	315.06
306.694	355.81
306.772	354.09
306.85	314.48
306.929	352.37
307.007	315.63
307.085	366.14
307.163	352.94
307.241	383.94
307.319	354.66
307.397	315.06
307.475	343.76
307.553	349.5
307.631	338.59
307.709	354.09
307.786	375.9
307.864	348.92
307.942	364.99
308.02	360.98
308.098	383.36
308.176	377.62
308.254	392.55
308.332	404.03
308.409	390.25
308.487	375.33
308.565	380.49
308.643	353.51
308.721	366.72
308.798	387.95
308.876	348.35
308.954	351.79
309.032	398.29
309.109	368.44
309.187	329.41
309.265	356.38
309.342	395.42
309.42	351.22
309.498	385.66
309.575	351.22
309.653	375.9
309.731	362.7
309.808	336.29
309.886	412.06
309.963	383.94
310.041	407.47
310.119	400.58
310.196	362.7
310.274	347.2
310.351	374.18
310.429	382.79
310.506	366.72
310.584	358.68
310.661	389.1
310.738	332.85
310.816	372.46
310.893	391.97
310.971	396.56
311.048	334.57
311.126	364.99
311.203	377.05
311.28	372.46
311.358	324.24
311.435	383.36
311.512	383.36
311.59	371.31
311.667	358.68
311.744	343.18
311.821	375.33
311.899	329.98
311.976	356.38
312.053	368.44
312.13	377.05
312.208	368.44
312.285	394.27
312.362	367.86
312.439	333.42
312.516	374.18
312.593	397.71
312.671	370.16
312.748	361.55
312.825	346.05
312.902	355.81
312.979	371.88
313.056	363.27
313.133	357.53
313.21	357.53
313.287	400.58
313.364	328.83
313.441	385.66
313.518	364.42
313.595	377.62
313.672	394.27
313.749	375.33
313.826	354.66
313.903	386.23
313.98	352.94
314.057	383.36
314.134	387.38
314.211	409.19
314.287	370.73
314.364	348.92
314.441	400.58
314.518	398.29
314.595	381.64
314.672	376.47
314.748	355.81
314.825	375.9
314.902	351.79
314.979	363.27
315.055	375.33
315.132	369.01
315.209	374.75
315.286	340.31
315.362	387.38
315.439	373.6
315.516	377.62
315.592	431.58
315.669	394.27
315.746	414.36
315.822	392.55
315.899	361.55
315.975	392.55
316.052	380.49
316.128	388.53
316.205	391.4
316.282	421.82
316.358	384.51
316.435	534.9
316.511	371.88
316.588	354.09
316.664	364.42
316.741	359.83
316.817	386.81
316.893	356.96
316.97	369.01
317.046	415.51
317.123	376.47
317.199	390.82
317.275	336.87
317.352	359.25
317.428	354.66
317.504	374.18
317.581	371.31
317.657	373.03
317.733	401.16
317.81	371.31
317.886	370.73
317.962	375.33
318.038	373.6
318.115	378.77
318.191	369.01
318.267	408.04
318.343	358.68
318.419	401.16
318.496	373.6
318.572	359.83
318.648	376.47
318.724	369.59
318.8	374.18
318.876	363.85
318.952	374.75
319.028	379.92
319.105	414.93
319.181	348.35
319.257	354.09
319.333	367.29
319.409	354.09
319.485	391.4
319.561	393.69
319.637	358.68
319.713	364.99
319.789	364.99
319.865	355.24
319.94	367.29
320.016	375.9
320.092	397.14
320.168	374.18
320.244	360.4
320.32	394.27
320.396	386.23
320.472	367.86
320.547	405.17
320.623	375.9
320.699	374.18
320.775	369.01
320.851	394.84
320.926	390.82
321.002	377.05
321.078	364.99
321.154	372.46
321.229	394.84
321.305	382.21
321.381	378.77
321.456	344.33
321.532	350.07
321.608	382.21
321.683	352.94
321.759	375.9
321.835	412.06
321.91	388.53
321.986	391.97
322.061	406.9
322.137	398.86
322.212	358.68
322.288	415.51
322.364	367.86
322.439	387.38
322.515	400.01
322.59	410.34
322.666	448.8
322.741	439.61
322.816	364.99
322.892	401.16
322.967	416.65
323.043	381.64
323.118	367.29
323.193	418.95
323.269	339.74
323.344	382.79
323.42	358.68
323.495	381.07
323.57	363.85
323.646	407.47
323.721	390.82
323.796	378.77
323.871	374.18
323.947	365.57
324.022	382.21
324.097	382.21
324.172	381.64
324.248	408.62
324.323	402.3
324.398	443.63
324.473	395.42
324.548	359.83
324.623	400.58
324.699	390.82
324.774	431
324.849	425.84
324.924	370.16
324.999	395.42
325.074	378.2
325.149	410.91
325.224	402.3
325.299	372.46
325.374	427.56
325.449	385.66
325.524	404.03
325.599	361.55
325.674	383.36
325.749	398.29
325.824	385.66
325.899	334
325.974	404.6
326.049	387.95
326.124	394.27
326.199	378.77
326.273	408.04
326.348	412.06
326.423	426.99
326.498	395.99
326.573	378.77
326.648	395.99
326.722	371.31
326.797	408.04
326.872	386.81
326.947	384.51
327.021	346.05
327.096	400.01
327.171	422.97
327.245	348.35
327.32	390.25
327.395	370.73
327.47	405.17
327.544	400.58
327.619	383.94
327.693	499.31
327.768	369.01
327.843	386.23
327.917	380.49
327.992	365.57
328.066	421.25
328.141	390.82
328.215	382.21
328.29	381.07
328.364	358.68
328.439	371.31
328.513	404.03
328.588	372.46
328.662	399.43
328.737	373.6
328.811	412.64
328.886	382.21
328.96	373.6
329.035	382.79
329.109	382.79
329.183	420.1
329.258	394.27
329.332	391.4
329.406	393.12
329.481	383.36
329.555	389.68
329.629	379.92
329.704	379.34
329.778	417.8
329.852	371.31
329.926	386.81
330.001	432.73
330.075	385.08
330.149	401.73
330.223	400.58
330.297	348.35
330.372	422.97
330.446	383.36
330.52	387.95
330.594	386.81
330.668	400.58
330.742	413.78
330.816	387.38
330.89	397.14
330.964	382.79
331.038	393.12
331.113	375.9
331.187	377.05
331.261	371.31
331.335	386.23
331.409	383.94
331.483	386.23
331.557	366.72
331.63	417.8
331.704	355.81
331.778	432.73
331.852	345.48
331.926	355.81
332	377.05
332.074	369.59
332.148	386.23
332.222	362.12
332.295	401.73
332.369	366.72
332.443	435.6
332.517	369.59
332.591	404.03
332.665	391.4
332.738	401.16
332.812	358.11
332.886	364.99
332.959	363.85
333.033	395.99
333.107	407.47
333.181	404.03
333.254	387.38
333.328	404.6
333.402	386.23
333.475	401.73
333.549	387.95
333.622	394.27
333.696	410.91
333.77	427.56
333.843	370.73
333.917	391.4
333.99	484.39
334.064	367.29
334.137	416.65
334.211	375.9
334.284	344.9
334.358	426.41
334.431	402.88
334.505	364.99
334.578	404.6
334.652	397.14
334.725	449.95
334.799	387.95
334.872	401.16
334.945	391.97
335.019	383.94
335.092	386.23
335.165	391.97
335.239	359.25
335.312	359.25
335.385	393.12
335.459	401.16
335.532	363.85
335.605	396.56
335.678	407.47
335.752	412.06
335.825	402.3
335.898	404.6
335.971	432.15
336.045	408.04
336.118	388.53
336.191	430.43
336.264	410.91
336.337	391.4
336.41	372.46
336.483	400.01
336.557	378.2
336.63	381.64
336.703	418.95
336.776	394.84
336.849	439.04
336.922	418.38
336.995	381.07
337.068	375.9
337.141	414.36
337.214	373.03
337.287	396.56
337.36	381.07
337.433	402.88
337.506	404.6
337.579	387.38
337.652	394.84
337.725	391.4
337.797	359.83
337.87	400.01
337.943	400.01
338.016	405.75
338.089	380.49
338.162	364.42
338.235	387.95
338.307	398.86
338.38	447.08
338.453	413.21
338.526	380.49
338.598	394.84
338.671	383.36
338.744	358.68
338.817	405.17
338.889	400.58
338.962	389.1
339.035	400.58
339.107	373.03
339.18	379.34
339.253	383.36
339.325	380.49
339.398	390.25
339.47	373.6
339.543	413.78
339.616	404.03
339.688	390.25
339.761	377.62
339.833	418.38
339.906	394.84
339.978	360.4
340.051	373.03
340.123	390.25
340.196	378.2
340.268	375.33
340.341	373.03
340.413	378.77
340.485	431.58
340.558	413.78
340.63	409.77
340.703	382.21
340.775	344.9
340.847	371.88
340.92	371.31
340.992	379.34
341.064	346.05
341.137	390.25
341.209	355.81
341.281	383.94
341.354	378.2
341.426	373.6
341.498	405.17
341.57	394.84
341.643	390.82
341.715	398.29
341.787	395.42
341.859	370.73
341.931	383.36
342.003	378.2
342.076	406.32
342.148	408.04
342.22	367.29
342.292	413.21
342.364	381.07
342.436	375.33
342.508	417.23
342.58	384.51
342.652	366.72
342.724	447.08
342.796	397.71
342.868	414.36
342.94	379.34
343.012	409.19
343.084	410.34
343.156	370.16
343.228	410.91
343.3	377.62
343.372	390.82
343.444	375.9
343.516	390.25
343.588	409.77
343.66	378.77
343.731	373.6
343.803	366.72
343.875	361.55
343.947	410.34
344.019	400.58
344.09	355.24
344.162	378.77
344.234	403.45
344.306	361.55
344.377	375.9
344.449	409.19
344.521	368.44
344.593	399.43
344.664	358.68
344.736	376.47
344.808	402.3
344.879	370.16
344.951	412.06
345.023	358.68
345.094	387.95
345.166	412.64
345.237	382.79
345.309	394.27
345.38	391.97
345.452	417.8
345.524	379.92
345.595	397.71
345.667	409.19
345.738	396.56
345.81	388.53
345.881	371.31
345.953	390.82
346.024	416.65
346.095	370.73
346.167	389.68
346.238	364.99
346.31	379.92
346.381	416.08
346.452	398.29
346.524	389.1
346.595	344.33
346.666	404.6
346.738	363.27
346.809	353.51
346.88	436.74
346.952	393.69
347.023	406.9
347.094	382.79
347.165	414.36
347.237	403.45
347.308	389.68
347.379	373.03
347.45	392.55
347.521	397.14
347.593	390.82
347.664	439.04
347.735	391.4
347.806	384.51
347.877	393.69
347.948	425.84
348.019	399.43
348.09	397.14
348.161	426.41
348.233	406.9
348.304	421.82
348.375	409.77
348.446	408.62
348.517	426.41
348.588	428.71
348.659	399.43
348.73	373.03
348.801	398.29
348.871	391.4
348.942	386.81
349.013	372.46
349.084	357.53
349.155	416.08
349.226	380.49
349.297	335.15
349.368	362.12
349.439	400.01
349.509	366.14
349.58	416.65
349.651	384.51
349.722	389.68
349.793	383.94
349.863	416.08
349.934	404.6
350.005	388.53
350.076	404.03
350.146	386.23
350.217	407.47
350.288	398.86
350.358	366.72
350.429	360.4
350.5	379.92
350.57	427.56
350.641	395.42
350.711	401.16
350.782	407.47
350.853	427.56
350.923	393.69
350.994	422.39
351.064	423.54
351.135	409.19
351.205	377.05
351.276	379.34
351.346	409.19
351.417	433.3
351.487	393.69
351.558	406.32
351.628	408.04
351.699	400.58
351.769	394.27
351.84	383.94
351.91	379.92
351.98	391.4
352.051	388.53
352.121	412.06
352.191	374.75
352.262	367.86
352.332	404.6
352.402	400.58
352.473	395.42
352.543	410.91
352.613	401.16
352.683	395.42
352.754	359.83
352.824	404.6
352.894	408.62
352.964	368.44
353.035	387.38
353.105	390.82
353.175	414.36
353.245	414.36
353.315	418.38
353.385	446.5
353.455	390.25
353.526	401.16
353.596	418.95
353.666	421.25
353.736	401.16
353.806	382.21
353.876	372.46
353.946	369.01
354.016	405.17
354.086	403.45
354.156	382.79
354.226	390.25
354.296	370.16
354.366	381.07
354.436	418.38
354.506	406.9
354.576	371.88
354.645	371.31
354.715	412.06
354.785	425.26
354.855	406.32
354.925	408.62
354.995	371.88
355.065	383.36
355.134	404.03
355.204	422.39
355.274	390.25
355.344	410.91
355.414	400.01
355.483	389.1
355.553	395.99
355.623	418.95
355.693	406.32
355.762	385.66
355.832	385.66
355.902	375.9
355.971	403.45
356.041	402.88
356.111	378.77
356.18	412.06
356.25	405.75
356.319	387.38
356.389	398.86
356.459	399.43
356.528	414.93
356.598	517.68
356.667	399.43
356.737	398.29
356.806	382.21
356.876	415.51
356.945	401.16
357.015	397.14
357.084	393.69
357.154	382.79
357.223	410.91
357.292	421.25
357.362	421.25
357.431	382.79
357.501	420.67
357.57	409.77
357.639	358.68
357.709	378.2
357.778	391.97
357.847	365.57
357.917	385.08
357.986	424.12
358.055	385.66
358.124	370.16
358.194	392.55
358.263	1371.22
358.332	447.65
358.401	394.84
358.471	365.57
358.54	392.55
358.609	381.07
358.678	435.02
358.747	384.51
358.816	401.73
358.886	374.75
358.955	419.52
359.024	405.75
359.093	416.65
359.162	445.35
359.231	389.1
359.3	419.52
359.369	389.1
359.438	378.77
359.507	399.43
359.576	401.16
359.645	378.77
359.714	501.03
359.783	390.82
359.852	408.04
359.921	423.54
359.99	390.25
360.059	414.36
360.128	391.4
360.197	397.71
360.266	429.28
360.334	418.95
360.403	397.71
360.472	417.23
360.541	400.01
360.61	416.08
360.679	403.45
360.747	405.75
360.816	419.52
360.885	409.77
360.954	426.99
361.022	431
361.091	390.82
361.16	373.03
361.228	434.45
361.297	387.95
361.366	451.67
361.434	419.52
361.503	459.7
361.572	380.49
361.64	379.92
361.709	382.79
361.778	413.21
361.846	361.55
361.915	402.88
361.983	402.3
362.052	409.19
362.12	418.95
362.189	362.7
362.257	387.95
362.326	401.73
362.394	391.97
362.463	403.45
362.531	397.14
362.6	383.94
362.668	405.17
362.737	416.65
362.805	439.04
362.873	408.04
362.942	394.84
363.01	379.34
363.079	398.29
363.147	396.56
363.215	373.03
363.284	383.94
363.352	439.61
363.42	382.79
363.488	416.08
363.557	422.97
363.625	430.43
363.693	381.64
363.761	391.97
363.83	423.54
363.898	409.19
363.966	367.86
364.034	402.88
364.102	402.88
364.171	424.12
364.239	417.8
364.307	395.99
364.375	431
364.443	408.62
364.511	394.84
364.579	416.08
364.647	411.49
364.715	394.27
364.783	378.2
364.851	378.2
364.919	471.18
364.987	436.17
365.055	412.64
365.123	411.49
365.191	408.62
365.259	445.35
365.327	408.62
365.395	355.81
365.463	386.81
365.531	401.73
365.599	490.7
365.667	406.32
365.735	410.91
365.802	382.21
365.87	412.06
365.938	405.17
366.006	401.73
366.074	417.8
366.142	395.42
366.209	421.82
366.277	430.43
366.345	433.87
366.413	390.25
366.48	489.55
366.548	404.03
366.616	414.36
366.683	393.69
366.751	390.82
366.819	420.67
366.886	404.03
366.954	472.91
367.022	410.91
367.089	426.41
367.157	408.62
367.224	766.8
367.292	401.16
367.36	390.25
367.427	429.28
367.495	436.17
367.562	441.91
367.63	398.86
367.697	422.97
367.765	415.51
367.832	401.16
367.9	436.74
367.967	440.19
368.034	406.32
368.102	404.03
368.169	395.42
368.237	411.49
368.304	411.49
368.371	404.03
368.439	425.26
368.506	433.3
368.573	418.38
368.641	409.77
368.708	409.77
368.775	438.47
368.843	402.88
368.91	431.58
368.977	416.08
369.044	381.07
369.112	394.27
369.179	405.75
369.246	400.58
369.313	433.87
369.38	384.51
369.448	405.75
369.515	442.48
369.582	403.45
369.649	423.54
369.716	416.08
369.783	444.78
369.85	439.04
369.917	414.36
369.984	381.07
370.052	435.6
370.119	396.56
370.186	448.22
370.253	409.19
370.32	432.73
370.387	440.76
370.454	425.26
370.521	428.13
370.587	427.56
370.654	435.02
370.721	441.91
370.788	429.86
370.855	396.56
370.922	419.52
370.989	390.82
371.056	440.19
371.123	457.41
371.189	402.88
371.256	416.65
371.323	428.71
371.39	440.19
371.457	406.9
371.523	471.76
371.59	449.37
371.657	458.56
371.724	402.88
371.79	388.53
371.857	398.86
371.924	466.02
371.991	439.61
372.057	404.6
372.124	447.08
372.191	439.61
372.257	400.58
372.324	445.93
372.39	433.3
372.457	414.36
372.524	405.17
372.59	428.13
372.657	433.3
372.723	396.56
372.79	406.32
372.856	416.08
372.923	447.08
372.989	411.49
373.056	397.14
373.122	423.54
373.189	424.69
373.255	409.77
373.322	399.43
373.388	426.99
373.454	390.82
373.521	455.69
373.587	443.63
373.654	418.95
373.72	436.74
373.786	408.62
373.853	435.6
373.919	414.36
373.985	434.45
374.052	398.86
374.118	456.26
374.184	419.52
374.25	420.1
374.317	400.58
374.383	410.91
374.449	441.34
374.515	434.45
374.581	435.6
374.648	421.82
374.714	425.84
374.78	405.17
374.846	430.43
374.912	404.6
374.978	445.35
375.044	424.12
375.11	429.86
375.177	410.34
375.243	440.19
375.309	409.19
375.375	448.22
375.441	410.34
375.507	464.87
375.573	419.52
375.639	439.61
375.705	449.37
375.771	432.15
375.837	464.3
375.903	441.34
375.968	428.71
376.034	419.52
376.1	451.09
376.166	457.41
376.232	491.85
376.298	431
376.364	442.48
376.43	420.1
376.495	427.56
376.561	436.17
376.627	418.38
376.693	432.73
376.759	425.84
376.824	435.02
376.89	410.91
376.956	433.3
377.022	470.61
377.087	416.08
377.153	451.67
377.219	425.84
377.284	441.34
377.35	441.91
377.416	438.47
377.481	426.99
377.547	428.71
377.613	452.24
377.678	437.32
377.744	406.9
377.809	448.8
377.875	489.55
377.94	435.02
378.006	442.48
378.071	448.22
378.137	429.86
378.202	448.8
378.268	437.89
378.333	449.95
378.399	417.23
378.464	418.95
378.53	435.6
378.595	435.02
378.661	467.17
378.726	404.03
378.791	429.86
378.857	468.31
378.922	412.64
378.987	459.7
379.053	439.61
379.118	495.87
379.183	486.68
379.249	462.57
379.314	418.38
379.379	481.52
379.444	426.41
379.51	446.5
379.575	424.12
379.64	458.56
379.705	439.61
379.771	440.19
379.836	449.37
379.901	468.89
379.966	425.26
380.031	450.52
380.096	426.99
380.161	448.22
380.227	452.82
380.292	469.46
380.357	429.86
380.422	423.54
380.487	453.39
380.552	431
380.617	437.89
380.682	449.95
380.747	439.04
380.812	447.08
380.877	404.6
380.942	419.52
381.007	487.83
381.072	453.39
381.137	447.65
381.202	455.69
381.266	472.91
381.331	451.67
381.396	441.91
381.461	449.95
381.526	456.26
381.591	479.79
381.656	443.06
381.72	449.95
381.785	435.02
381.85	511.36
381.915	471.76
381.979	444.21
382.044	460.85
382.109	483.24
382.174	451.09
382.238	474.05
382.303	443.63
382.368	475.2
382.432	478.07
382.497	452.82
382.562	467.74
382.626	443.06
382.691	459.13
382.756	475.78
382.82	444.21
382.885	456.83
382.949	485.53
383.014	452.24
383.078	491.27
383.143	437.89
383.208	447.65
383.272	452.82
383.337	459.13
383.401	487.83
383.465	454.54
383.53	448.8
383.594	461.43
383.659	464.3
383.723	475.78
383.788	471.76
383.852	451.67
383.916	470.61
383.981	495.29
384.045	505.62
384.109	447.08
384.174	470.61
384.238	497.01
384.302	484.39
384.367	487.26
384.431	479.79
384.495	533.75
384.56	460.85
384.624	457.98
384.688	460.85
384.752	470.04
384.816	469.46
384.881	502.18
384.945	477.5
385.009	501.61
385.073	470.04
385.137	482.66
385.201	475.2
385.265	477.5
385.33	465.44
385.394	489.55
385.458	511.94
385.522	525.14
385.586	494.14
385.65	509.07
385.714	506.77
385.778	519.4
385.842	479.79
385.906	530.31
385.97	497.01
386.034	557.86
386.098	494.14
386.162	505.05
386.226	515.38
386.29	497.01
386.354	496.44
386.417	526.86
386.481	529.16
386.545	491.85
386.609	523.42
386.673	498.74
386.737	533.75
386.8	527.44
386.864	570.49
386.928	513.09
386.992	584.26
387.056	540.06
387.119	576.23
387.183	595.74
387.247	574.5
387.31	585.98
387.374	568.76
387.438	572.78
387.502	591.72
387.565	587.71
387.629	674.96
387.692	647.98
387.756	627.31
387.82	604.93
387.883	623.29
387.947	614.11
388.01	693.32
388.074	668.64
388.138	689.31
388.201	690.45
388.265	707.67
388.328	720.88
388.392	775.41
388.455	751.3
388.519	761.06
388.582	771.39
388.645	790.9
388.709	913.17
388.772	830.51
388.836	824.77
388.899	877
388.962	871.84
389.026	940.14
389.089	934.4
389.153	986.64
389.216	973.44
389.279	1001.56
389.343	1007.3
389.406	1102.01
389.469	1063.55
389.532	1097.99
389.596	1142.77
389.659	1146.79
389.722	1165.73
389.785	1237.48
389.848	1232.89
389.912	1301.77
389.975	1309.23
390.038	1366.63
390.101	1383.85
390.164	1467.65
390.227	1536.53
390.291	1542.27
390.354	1538.25
390.417	1601.97
390.48	1587.62
390.543	1698.98
390.606	1758.67
390.669	1754.65
390.732	1840.18
390.795	1899.88
390.858	1981.38
390.921	2050.26
390.984	2065.76
391.047	2101.35
391.11	2244.28
391.173	2256.33
391.236	2312.01
391.299	2467.56
391.362	2542.18
391.424	2528.41
391.487	2630.58
391.55	2681.67
391.613	2726.44
391.676	2855.02
391.739	2909.55
391.802	3042.14
391.864	3138
391.927	3208.6
391.99	3220.66
392.053	3373.34
392.115	3455.42
392.178	3556.45
392.241	3637.38
392.304	3672.4
392.366	3802.69
392.429	3938.16
392.492	3999.58
392.554	4127.01
392.617	4213.68
392.68	4287.15
392.742	4384.16
392.805	4535.12
392.867	4633.28
392.93	4677.47
392.992	4877.23
393.055	4873.78
393.118	5042.54
393.18	5140.69
393.243	5300.84
393.305	5415.64
393.368	5528.15
393.43	5609.08
393.493	5790.46
393.555	5901.25
393.618	5976.44
393.68	6098.13
393.742	6249.09
393.805	6398.91
393.867	6536.67
393.93	6764.55
393.992	6836.3
394.054	6893.12
394.117	7086.56
394.179	7238.1
394.241	7299.52
394.304	7592.26
394.366	7634.16
394.428	7781.68
394.49	7996.93
394.553	8095.08
394.615	8238.01
394.677	8435.47
394.739	8627.76
394.802	8913.61
394.864	8909.02
394.926	9048.5
394.988	9299.91
395.05	9482.45
395.112	9586.92
395.174	9766
395.237	9974.94
395.299	10022.01
395.361	10362.97
395.423	10531.15
395.485	10540.33
395.547	10787.73
395.609	11093.1
395.671	11333.61
395.733	11360.58
395.795	11633.81
395.857	11867.43
395.919	12107.36
395.981	12345
396.043	12603.87
396.105	12734.75
396.167	12757.13
396.229	13178.45
396.291	13410.35
396.352	13564.18
396.414	13806.41
396.476	14038.88
396.538	14385.58
396.6	14359.17
396.662	14751.79
396.724	14866.59
396.785	15187.46
396.847	15363.1
396.909	15520.95
396.971	15918.74
397.032	16010
397.094	16152.36
397.156	16380.81
397.218	16666.66
397.279	16755.63
397.341	17226.31
397.403	17292.9
397.464	17393.92
397.526	17765.3
397.588	18067.8
397.649	18196.38
397.711	18657.3
397.772	18852.46
397.834	19128.56
397.896	19221.55
397.957	19539.54
398.019	19814.49
398.08	19994.73
398.142	20153.73
398.203	20740.36
398.265	20886.73
398.326	20830.47
398.388	21118.05
398.449	21468.77
398.511	21883.77
398.572	22102.46
398.633	22486.47
398.695	22693.11
398.756	22700
398.818	23020.87
398.879	23363.55
398.94	23601.76
399.002	23902.54
399.063	24099.99
399.124	24492.04
399.186	24746.32
399.247	24906.47
399.308	25472.43
399.369	25861.61
399.431	25828.31
399.492	26405.19
399.553	26493.01
399.614	26725.48
399.676	27171.48
399.737	27599.11
399.798	27667.99
399.859	27846.51
399.92	28215.02
399.981	28584.67
400.042	28489.96
400.104	29003.69
400.165	29464.04
400.226	29755.06
400.287	30168.92
400.348	30399.09
400.409	30715.37
400.47	30963.34
400.531	31010.98
400.592	31440.91
400.653	31804.25
400.714	31515.53
400.775	32039.59
400.836	32660.09
400.897	33019.99
400.958	33270.83
401.019	33431.55
401.08	33265.09
401.141	34079.6
401.201	34155.37
401.262	34325.84
401.323	34740.27
401.384	35098.45
401.445	35196.61
401.506	35929.03
401.567	36115.01
401.627	36116.16
401.688	36781.43
401.749	37063.84
401.81	37485.73
401.87	37347.97
401.931	38114.83
401.992	38560.83
402.053	38447.18
402.113	39107.28
402.174	39548.12
402.235	39294.41
402.295	39590.59
402.356	39643.98
402.417	40274.81
402.477	40496.37
402.538	40533.11
402.598	40991.73
402.659	41303.42
402.719	41410.18
402.78	41853.31
402.841	42094.39
402.901	42745.31
402.962	42899.72
403.022	42774.01
403.083	43349.16
403.143	43317.59
403.204	44028.78
403.264	43687.82
403.324	44392.7
403.385	44368.59
403.445	44710.7
403.506	44533.33
403.566	45005.16
403.627	45016.64
403.687	45462.64
403.747	45520.61
403.808	45958
403.868	46268.54
403.928	46935.53
403.989	46763.9
404.049	46813.27
404.109	47175.46
404.169	47311.5
404.23	47825.81
404.29	47791.94
404.35	48452.62
404.41	48417.03
404.47	48925.6
404.531	48860.16
404.591	48984.14
404.651	49735.51
404.711	49923.21
404.771	49412.35
404.831	49419.81
404.892	49942.15
404.952	50177.49
405.012	49936.41
405.072	49875
405.132	50142.48
405.192	49868.11
405.252	50505.82
405.312	50219.4
405.372	51041.94
405.432	50212.51
405.492	50618.9
405.552	50570.69
405.612	50936.9
405.672	51144.69
405.732	51648.66
405.792	51320.91
405.852	51290.49
405.912	51328.37
405.971	51441.45
406.031	51458.09
406.091	51381.18
406.151	51570.6
406.211	51485.07
406.271	51661.86
406.33	51773.8
406.39	51362.24
406.45	51132.63
406.51	51385.2
406.57	51336.98
406.629	51490.24
406.689	51767.48
406.749	51783.55
406.808	51766.91
406.868	52094.66
406.928	51729.02
406.988	51458.09
407.047	51361.66
407.107	51788.15
407.166	51711.8
407.226	51381.18
407.286	51318.04
407.345	51361.66
407.405	51522.38
407.464	51293.36
407.524	51072.94
407.584	51246.29
407.643	51141.24
407.703	50691.23
407.762	50521.32
407.822	50296.89
407.881	50087.38
407.941	50129.28
408	50062.12
408.059	49748.71
408.119	49710.83
408.178	49408.91
408.238	49484.1
408.297	49507.63
408.356	49548.39
408.416	49306.16
408.475	49234.41
408.535	49016.29
408.594	48689.68
408.653	48937.08
408.712	48395.22
408.772	47717.32
408.831	47694.36
408.89	47430.32
408.95	47347.66
409.009	47196.13
409.068	47056.07
409.127	46973.41
409.186	46459.68
409.246	45502.82
409.305	45768.01
409.364	45388.59
409.423	45697.98
409.482	44850.18
409.541	44290.53
409.6	44423.12
409.66	43924.31
409.719	43624.11
409.778	43645.92
409.837	42946.21
409.896	42810.17
409.955	42588.61
410.014	42393.45
410.073	42021.49
410.132	41334.41
410.191	40548.03
410.25	40704.73
410.309	40673.74
410.368	40269.64
410.427	39674.97
410.486	39778.87
410.545	38656.69
410.603	38399.54
410.662	38429.39
410.721	38052.84
410.78	37619.47
410.839	37298.03
410.898	37009.88
410.957	36686.14
411.015	36338.3
411.074	35877.37
411.133	35563.97
411.192	34978.49
411.25	34325.27
411.309	34182.34
411.368	33861.48
411.427	33804.65
411.485	33611.79
411.544	33259.92
411.603	33029.75
411.661	32337.5
411.72	32327.74
411.779	31706.1
411.837	31183.18
411.896	31229.1
411.955	30932.34
412.013	30446.16
412.072	30290.61
412.13	29949.65
412.189	29071.43
412.247	29156.95
412.306	28969.83
412.364	28414.77
412.423	28466.43
412.481	27776.48
412.54	27819.53
412.598	27425.19
412.657	27506.12
412.715	26739.83
412.774	26717.44
412.832	26338.6
412.891	26123.92
412.949	26137.7
413.007	25652.09
413.066	25483.34
413.124	25270.38
413.182	24972.48
413.241	24933.44
413.299	24292.86
413.357	24040.87
413.416	23879.58
413.474	23525.42
413.532	23462.28
413.59	23139.69
413.649	23062.2
413.707	22756.25
413.765	22533.54
413.823	22439.4
413.881	22093.28
413.94	21811.44
413.998	21777
414.056	21454.42
414.114	21434.33
414.172	21123.79
414.23	20983.16
414.288	20757
414.347	20740.93
414.405	20584.23
414.463	20366.68
414.521	20129.04
414.579	19802.44
414.637	19716.34
414.695	19481.57
414.753	19518.88
414.811	19041.88
414.869	18975.87
414.927	18731.35
414.985	18850.17
415.043	18522.99
415.101	18409.91
415.158	18187.19
415.216	18151.03
415.274	18036.23
415.332	17901.34
415.39	17688.96
415.448	17355.46
415.506	17452.47
415.563	17295.77
415.621	16902.58
415.679	16753.34
415.737	16786.05
415.795	16534.64
415.852	16515.12
415.91	16302.17
415.968	16524.31
416.026	16208.61
416.083	16164.41
416.141	15886.59
416.199	15853.87
416.256	15765.48
416.314	15661.58
416.372	15508.32
416.429	15220.75
416.487	15188.03
416.544	15125.47
416.602	15081.27
416.66	14900.46
416.717	14841.33
416.775	14734.57
416.832	14600.83
416.89	14580.16
416.947	14620.92
417.005	14222.56
417.062	14055.52
417.12	13985.5
417.177	13972.87
417.235	13847.16
417.292	13711.7
417.35	13740.4
417.407	13731.79
417.464	13594.6
417.522	13382.79
417.579	13352.37
417.637	13446.51
417.694	13160.08
417.751	13284.07
417.809	13095.79
417.866	13158.93
417.923	13011.99
417.981	12850.12
418.038	12820.85
418.095	12732.45
418.152	12667.59
418.21	12600.43
418.267	12574.6
418.324	12213.55
418.381	12113.1
418.438	11958.12
418.496	12140.65
418.553	11982.23
418.61	11874.32
418.667	11899.57
418.724	11809.45
418.781	11695.23
418.838	11665.38
418.895	11626.92
418.952	11639.55
419.01	11528.77
419.067	11262.43
419.124	11164.27
419.181	11118.35
419.238	11227.41
419.295	11064.97
419.352	10923.77
419.409	10773.95
419.466	10668.34
419.523	10686.13
419.579	10640.21
419.636	10489.82
419.693	10467.44
419.75	10431.27
419.807	10274.57
419.864	10431.85
419.921	10257.35
419.978	10246.44
420.034	10116.15
420.091	10005.94
420.148	10048.41
420.205	9957.15
420.262	9788.96
420.318	9737.88
420.375	9731.56
420.432	9741.32
420.489	9425.62
420.545	9424.47
420.602	9446.29
420.659	9402.09
420.715	9457.77
420.772	9266.62
420.829	9190.28
420.885	9077.78
420.942	9130.58
420.999	8756.91
421.055	8838.99
421.112	8828.08
421.168	8712.71
421.225	8656.46
421.282	8442.36
421.338	8494.02
421.395	8314.35
421.451	8526.73
421.508	8333.29
421.564	8300.58
421.621	8238.58
421.677	8201.85
421.734	8027.93
421.79	8057.2
421.846	8024.48
421.903	7803.49
421.959	7734.04
422.016	7741.5
422.072	7763.31
422.128	7665.16
422.185	7549.78
422.241	7459.09
422.297	7371.27
422.354	7341.99
422.41	7315.59
422.466	7181.85
422.523	7277.13
422.579	7136.5
422.635	7162.33
422.691	6900.01
422.748	6948.8
422.804	6925.84
422.86	6874.18
422.916	6652.04
422.972	6660.08
423.029	6617.03
423.085	6546.43
423.141	6389.15
423.197	6297.31
423.253	6307.64
423.309	6409.24
423.365	6317.4
423.421	6292.14
423.477	6096.98
423.533	6157.83
423.589	5959.22
423.645	5966.11
423.701	6040.73
423.757	5848.44
423.813	5885.75
423.869	5828.35
423.925	5656.72
423.981	5717.57
424.037	5556.27
424.093	5580.95
424.149	5465
424.205	5332.98
424.261	5428.84
424.317	5312.89
424.373	5304.86
424.428	5231.96
424.484	5202.69
424.54	5212.44
424.596	5101.09
424.652	5036.8
424.708	5061.48
424.763	4931.76
424.819	4900.76
424.875	4862.88
424.931	4744.63
424.986	4740.61
425.042	4754.96
425.098	4683.79
425.153	4760.7
425.209	4665.99
425.265	4579.32
425.32	4539.14
425.376	4560.95
425.432	4506.42
425.487	4397.36
425.543	4438.69
425.598	4294.04
425.654	4296.34
425.709	4280.84
425.765	4193.02
425.82	4210.81
425.876	4145.95
425.932	4109.21
425.987	4080.51
426.042	4139.06
426.098	4028.28
426.153	3946.77
426.209	3881.91
426.264	3880.18
426.32	3916.92
426.375	3759.07
426.43	3782.03
426.486	3651.73
426.541	3747.02
426.597	3701.67
426.652	3639.68
426.707	3639.68
426.763	3557.02
426.818	3610.4
426.873	3544.97
426.928	3561.61
426.984	3487.57
427.039	3481.25
427.094	3459.44
427.149	3385.39
427.205	3374.49
427.26	3342.92
427.315	3305.61
427.37	3312.5
427.425	3255.67
427.48	3237.3
427.536	3229.27
427.591	3206.31
427.646	3212.62
427.701	3150.05
427.756	3170.14
427.811	3109.87
427.866	3067.97
427.921	3031.23
427.976	3012.29
428.031	2973.83
428.086	2916.43
428.141	2922.75
428.196	2951.45
428.251	2893.47
428.306	2898.64
428.361	2872.24
428.416	2850.42
428.471	2862.48
428.526	2780.97
428.581	2809.1
428.636	2773.51
428.691	2721.27
428.745	2751.12
428.8	2648.38
428.855	2644.36
428.91	2631.16
428.965	2698.31
429.02	2663.87
429.074	2590.4
429.129	2625.42
429.184	2592.12
429.239	2507.17
429.293	2516.35
429.348	2517.5
429.403	2546.78
429.457	2530.13
429.512	2486.51
429.567	2457.81
429.621	2438.86
429.676	2434.27
429.731	2411.31
429.785	2458.95
429.84	2435.42
429.895	2312.01
429.949	2372.28
430.004	2349.89
430.058	2345.3
430.113	2307.99
430.167	2283.88
430.222	2240.83
430.276	2279.29
430.331	2229.93
430.385	2248.3
430.44	2180.56
430.494	2193.77
430.549	2222.47
430.603	2186.3
430.657	2150.14
430.712	2075.52
430.766	2082.98
430.821	2144.98
430.875	2128.9
430.929	2043.95
430.984	2074.95
431.038	2008.94
431.092	1959
431.147	2016.4
431.201	1956.7
431.255	1976.79
431.309	1952.68
431.364	1897.01
431.418	1936.61
431.472	1858.55
431.526	1831
431.581	1847.64
431.635	1832.14
431.689	1807.46
431.743	1846.49
431.797	1808.04
431.851	1800
431.906	1709.31
431.96	1720.79
432.014	1722.51
432.068	1663.96
432.122	1693.24
432.176	1651.91
432.23	1669.7
432.284	1659.94
432.338	1618.61
432.392	1600.82
432.446	1518.16
432.5	1583.6
432.554	1522.18
432.608	1484.3
432.662	1479.71
432.716	1475.69
432.77	1448.14
432.824	1402.79
432.878	1386.14
432.931	1387.87
432.985	1385.57
433.039	1360.89
433.093	1326.45
433.147	1353.43
433.201	1357.44
433.254	1270.2
433.308	1320.13
433.362	1311.52
433.416	1298.32
433.47	1244.37
433.523	1240.92
433.577	1245.51
433.631	1193.28
433.684	1135.88
433.738	1181.8
433.792	1157.69
433.846	1169.17
433.899	1133.58
433.953	1080.77
434.006	1111.2
434.06	1090.53
434.114	1071.59
434.167	1071.59
434.221	1071.59
