Data from QEPB00791_17-13-57-708.txt Node
Date: Mon Jan 20 17:13:57 MST 2020
User: ecestudent
Spectrometer: QEPB0079
Trigger mode: 0
Integration Time (sec): 8.000000E-3
Scans to average: 1
Electric dark correction enabled: true
Nonlinearity correction enabled: false
Boxcar width: 0
XAxis mode: Wavelengths
Number of Pixels in Spectrum: 1044
>>>>>Begin Spectral Data<<<<<
198.864	29.12
199.671	28.12
200.477	30.12
201.284	29.12
202.091	27.12
202.897	29.12
203.704	27.12
204.51	31.12
205.317	29.12
206.123	28.12
206.929	30.12
207.736	29.12
208.542	31.12
209.348	29.12
210.154	30.12
210.96	30.12
211.765	29.12
212.571	31.12
213.377	33.12
214.182	33.12
214.988	28.12
215.793	32.12
216.599	33.12
217.404	30.12
218.209	36.12
219.015	29.12
219.82	35.12
220.625	31.12
221.43	28.12
222.235	28.12
223.039	34.12
223.844	32.12
224.649	33.12
225.453	32.12
226.258	33.12
227.062	33.12
227.867	36.12
228.671	31.12
229.475	37.12
230.28	29.12
231.084	31.12
231.888	36.12
232.692	35.12
233.496	35.12
234.299	31.12
235.103	33.12
235.907	33.12
236.71	33.12
237.514	36.12
238.317	31.12
239.121	35.12
239.924	37.12
240.727	38.12
241.531	38.12
242.334	35.12
243.137	36.12
243.94	36.12
244.743	39.12
245.545	40.12
246.348	36.12
247.151	41.12
247.954	35.12
248.756	43.12
249.559	37.12
250.361	41.12
251.163	39.12
251.965	43.12
252.768	44.12
253.57	42.12
254.372	44.12
255.174	43.12
255.976	43.12
256.777	42.12
257.579	47.12
258.381	45.12
259.183	46.12
259.984	44.12
260.786	43.12
261.587	45.12
262.388	46.12
263.189	45.12
263.991	46.12
264.792	47.12
265.593	49.12
266.394	49.12
267.195	47.12
267.995	51.12
268.796	47.12
269.597	50.12
270.397	51.12
271.198	51.12
271.998	52.12
272.799	53.12
273.599	53.12
274.399	51.12
275.2	55.12
276	54.12
276.8	57.12
277.6	55.12
278.4	58.12
279.199	55.12
279.999	59.12
280.799	60.12
281.598	57.12
282.398	60.12
283.197	64.12
283.997	60.12
284.796	62.12
285.595	61.12
286.395	65.12
287.194	64.12
287.993	67.12
288.792	71.12
289.59	71.12
290.389	70.12
291.188	68.12
291.987	75.12
292.785	76.12
293.584	73.12
294.382	75.12
295.181	81.12
295.979	85.12
296.777	77.12
297.575	82.12
298.373	85.12
299.171	86.12
299.969	95.12
300.767	93.12
301.565	92.12
302.363	101.12
303.16	101.12
303.958	102.12
304.756	108.12
305.553	109.12
306.35	114.12
307.148	121.12
307.945	124.12
308.742	129.12
309.539	135.12
310.336	139.12
311.133	144.12
311.93	146.12
312.727	155.12
313.524	169.12
314.32	173.12
315.117	187.12
315.913	191.12
316.71	207.12
317.506	216.12
318.302	229.12
319.099	235.12
319.895	250.12
320.691	264.12
321.487	270.12
322.283	284.12
323.079	301.12
323.874	318.12
324.67	329.12
325.466	346.12
326.261	369.12
327.057	397.12
327.852	419.12
328.648	454.12
329.443	501.12
330.238	549.12
331.033	596.12
331.828	689.12
332.623	800.12
333.418	905.12
334.213	974.12
335.008	1017.12
335.803	1043.12
336.597	1075.12
337.392	1120.12
338.186	1177.12
338.981	1231.12
339.775	1332.12
340.57	1390.12
341.364	1462.12
342.158	1577.12
342.952	1676.12
343.746	1762.12
344.54	1870.12
345.334	1939.12
346.127	1994.12
346.921	2057.12
347.715	2084.12
348.508	2104.12
349.302	2139.12
350.095	2150.12
350.889	2188.12
351.682	2223.12
352.475	2308.12
353.268	2413.12
354.061	2452.12
354.854	2541.12
355.647	2620.12
356.44	2739.12
357.233	2833.12
358.025	3023.12
358.818	3257.12
359.611	3627.12
360.403	4261.12
361.195	5228.12
361.988	6319.12
362.78	7307.12
363.572	7871.12
364.364	8206.12
365.156	8536.12
365.948	8962.12
366.74	9226.12
367.532	9148.12
368.324	8816.12
369.116	8372.12
369.907	7918.12
370.699	7444.12
371.49	7060.12
372.282	6775.12
373.073	6502.12
373.864	6320.12
374.655	6138.12
375.446	5974.12
376.237	5890.12
377.028	5893.12
377.819	5843.12
378.61	5816.12
379.401	5833.12
380.192	5832.12
380.982	5879.12
381.773	5958.12
382.563	6026.12
383.354	6136.12
384.144	6256.12
384.934	6362.12
385.724	6442.12
386.514	6516.12
387.304	6651.12
388.094	6669.12
388.884	6712.12
389.674	6747.12
390.464	6785.12
391.253	6905.12
392.043	7033.12
392.832	7180.12
393.622	7298.12
394.411	7452.12
395.201	7616.12
395.99	7744.12
396.779	7971.12
397.568	8180.12
398.357	8494.12
399.146	8794.12
399.935	9290.12
400.724	10151.12
401.512	11892.12
402.301	14996.12
403.09	19168.12
403.878	23198.12
404.667	25705.12
405.455	26079.12
406.243	24796.12
407.031	22678.12
407.82	20595.12
408.608	18939.12
409.396	17835.12
410.184	17245.12
410.971	16898.12
411.759	16593.12
412.547	16174.12
413.334	15608.12
414.122	15153.12
414.91	14801.12
415.697	14684.12
416.484	14731.12
417.272	14798.12
418.059	15024.12
418.846	15297.12
419.633	15672.12
420.42	16068.12
421.207	16537.12
421.994	17055.12
422.78	17534.12
423.567	18022.12
424.354	18480.12
425.14	19025.12
425.927	19651.12
426.713	20432.12
427.499	21420.12
428.286	22725.12
429.072	24031.12
429.858	25100.12
430.644	25732.12
431.43	26344.12
432.216	27545.12
433.002	30339.12
433.787	34198.12
434.573	38706.12
435.359	43545.12
436.144	47588.12
436.93	49920.12
437.715	49521.12
438.5	46619.12
439.286	42397.12
440.071	38271.12
440.856	34759.12
441.641	31699.12
442.426	29410.12
443.211	27576.12
443.996	26330.12
444.78	25376.12
445.565	24554.12
446.35	23825.12
447.134	23018.12
447.919	22184.12
448.703	21392.12
449.487	20529.12
450.271	19726.12
451.056	19018.12
451.84	18367.12
452.624	17926.12
453.408	17608.12
454.191	17424.12
454.975	17372.12
455.759	17325.12
456.543	17230.12
457.326	16910.12
458.11	16416.12
458.893	15962.12
459.676	15362.12
460.46	14937.12
461.243	14645.12
462.026	14403.12
462.809	14324.12
463.592	14184.12
464.375	14253.12
465.158	14332.12
465.941	14477.12
466.723	14607.12
467.506	14821.12
468.288	15093.12
469.071	15325.12
469.853	15505.12
470.636	15852.12
471.418	16062.12
472.2	16256.12
472.982	16329.12
473.764	16151.12
474.546	15861.12
475.328	15588.12
476.11	15346.12
476.892	15146.12
477.673	15018.12
478.455	15006.12
479.236	15038.12
480.018	15201.12
480.799	15473.12
481.581	15817.12
482.362	16299.12
483.143	16884.12
483.924	17433.12
484.705	17831.12
485.486	17954.12
486.267	17944.12
487.048	17707.12
487.828	17364.12
488.609	16977.12
489.39	16590.12
490.17	16090.12
490.951	15325.12
491.731	14513.12
492.511	13827.12
493.292	13258.12
494.072	12947.12
494.852	12722.12
495.632	12497.12
496.412	12248.12
497.192	12000.12
497.971	11718.12
498.751	11558.12
499.531	11430.12
500.31	11307.12
501.09	11230.12
501.869	11103.12
502.648	10997.12
503.428	10917.12
504.207	10925.12
504.986	10840.12
505.765	10839.12
506.544	10829.12
507.323	10831.12
508.102	10868.12
508.881	10892.12
509.659	10905.12
510.438	10960.12
511.216	10996.12
511.995	11013.12
512.773	11041.12
513.552	11069.12
514.33	11075.12
515.108	11158.12
515.886	11154.12
516.664	11203.12
517.442	11155.12
518.22	11162.12
518.998	11197.12
519.775	11193.12
520.553	11264.12
521.331	11284.12
522.108	11315.12
522.886	11375.12
523.663	11453.12
524.44	11550.12
525.218	11673.12
525.995	11804.12
526.772	11946.12
527.549	12191.12
528.326	12531.12
529.103	13062.12
529.879	13722.12
530.656	14585.12
531.433	15450.12
532.209	16325.12
532.986	16949.12
533.762	17655.12
534.539	18445.12
535.315	19518.12
536.091	20697.12
536.867	22178.12
537.643	23605.12
538.419	24739.12
539.195	25769.12
539.971	26632.12
540.747	27777.12
541.522	29490.12
542.298	33364.12
543.074	42902.12
543.849	57816.12
544.624	63139.12
545.4	63139.12
546.175	63139.12
546.95	63139.12
547.725	63139.12
548.5	63139.12
549.275	63139.12
550.05	63139.12
550.825	63139.12
551.6	63139.12
552.374	63139.12
553.149	56256.12
553.923	51044.12
554.698	46679.12
555.472	42969.12
556.247	39912.12
557.021	37304.12
557.795	35328.12
558.569	33821.12
559.343	32528.12
560.117	31459.12
560.891	30530.12
561.665	29559.12
562.438	28424.12
563.212	27370.12
563.985	26223.12
564.759	25372.12
565.532	24924.12
566.306	24837.12
567.079	25266.12
567.852	26487.12
568.625	28448.12
569.398	31433.12
570.171	35578.12
570.944	40835.12
571.717	46829.12
572.49	53136.12
573.262	59257.12
574.035	63139.12
574.808	63139.12
575.58	63139.12
576.352	63139.12
577.125	63139.12
577.897	63139.12
578.669	63139.12
579.441	59156.12
580.213	55326.12
580.985	51770.12
581.757	48259.12
582.529	45040.12
583.301	42028.12
584.072	39254.12
584.844	36862.12
585.615	34551.12
586.387	32755.12
587.158	30944.12
587.929	29528.12
588.701	28221.12
589.472	27002.12
590.243	25882.12
591.014	24976.12
591.785	24252.12
592.556	23672.12
593.326	23126.12
594.097	22550.12
594.868	21839.12
595.638	21012.12
596.409	20263.12
597.179	19465.12
597.949	18815.12
598.72	18267.12
599.49	17781.12
600.26	17296.12
601.03	16924.12
601.8	16582.12
602.57	16286.12
603.34	15946.12
604.109	15681.12
604.879	15455.12
605.649	15199.12
606.418	14996.12
607.188	14825.12
607.957	14630.12
608.726	14488.12
609.496	14320.12
610.265	14152.12
611.034	13967.12
611.803	13736.12
612.572	13605.12
613.341	13484.12
614.109	13289.12
614.878	13173.12
615.647	13034.12
616.415	12949.12
617.184	12886.12
617.952	12768.12
618.721	12691.12
619.489	12621.12
620.257	12564.12
621.025	12449.12
621.793	12419.12
622.561	12384.12
623.329	12360.12
624.097	12321.12
624.865	12242.12
625.632	12260.12
626.4	12211.12
627.168	12153.12
627.935	12153.12
628.702	12084.12
629.47	12064.12
630.237	12028.12
631.004	11957.12
631.771	11945.12
632.538	11830.12
633.305	11811.12
634.072	11788.12
634.839	11676.12
635.606	11733.12
636.372	11654.12
637.139	11658.12
637.905	11579.12
638.672	11557.12
639.438	11495.12
640.204	11506.12
640.971	11426.12
641.737	11385.12
642.503	11379.12
643.269	11295.12
644.035	11279.12
644.8	11278.12
645.566	11269.12
646.332	11152.12
647.097	11122.12
647.863	11117.12
648.629	11112.12
649.394	11041.12
650.159	11007.12
650.924	11012.12
651.69	10970.12
652.455	10955.12
653.22	10908.12
653.985	10961.12
654.75	10911.12
655.514	10892.12
656.279	10859.12
657.044	10813.12
657.808	10822.12
658.573	10807.12
659.337	10828.12
660.102	10807.12
660.866	10796.12
661.63	10761.12
662.394	10763.12
663.158	10746.12
663.922	10773.12
664.686	10720.12
665.45	10708.12
666.214	10688.12
666.978	10654.12
667.741	10705.12
668.505	10659.12
669.268	10632.12
670.032	10644.12
670.795	10647.12
671.558	10599.12
672.321	10602.12
673.084	10513.12
673.847	10487.12
674.61	10515.12
675.373	10404.12
676.136	10438.12
676.899	10440.12
677.662	10411.12
678.424	10409.12
679.187	10431.12
679.949	10380.12
680.711	10367.12
681.474	10367.12
682.236	10339.12
682.998	10318.12
683.76	10341.12
684.522	10358.12
685.284	10320.12
686.046	10343.12
686.808	10347.12
687.569	10324.12
688.331	10368.12
689.092	10320.12
689.854	10393.12
690.615	10481.12
691.377	10503.12
692.138	10529.12
692.899	10598.12
693.66	10637.12
694.421	10627.12
695.182	10577.12
695.943	10563.12
696.704	10481.12
697.465	10408.12
698.225	10326.12
698.986	10303.12
699.746	10229.12
700.507	10205.12
701.267	10104.12
702.027	10067.12
702.788	10072.12
703.548	10016.12
704.308	9994.12
705.068	9906.12
705.828	9889.12
706.588	9820.12
707.347	9811.12
708.107	9781.12
708.867	9773.12
709.626	9724.12
710.386	9751.12
711.145	9662.12
711.904	9595.12
712.664	9555.12
713.423	9411.12
714.182	9366.12
714.941	9290.12
715.7	9149.12
716.459	9105.12
717.218	9030.12
717.976	9002.12
718.735	8885.12
719.494	8832.12
720.252	8763.12
721.011	8738.12
721.769	8632.12
722.527	8582.12
723.285	8595.12
724.044	8485.12
724.802	8436.12
725.56	8410.12
726.317	8272.12
727.075	8217.12
727.833	8063.12
728.591	7933.12
729.348	7781.12
730.106	7601.12
730.863	7401.12
731.621	7297.12
732.378	7150.12
733.135	6947.12
733.893	6829.12
734.65	6694.12
735.407	6610.12
736.164	6430.12
736.92	6322.12
737.677	6230.12
738.434	6137.12
739.191	6047.12
739.947	5939.12
740.704	5846.12
741.46	5783.12
742.216	5723.12
742.973	5631.12
743.729	5550.12
744.485	5470.12
745.241	5389.12
745.997	5324.12
746.753	5270.12
747.509	5194.12
748.265	5136.12
749.02	5054.12
749.776	4999.12
750.531	4944.12
751.287	4842.12
752.042	4785.12
752.798	4722.12
753.553	4661.12
754.308	4635.12
755.063	4544.12
755.818	4479.12
756.573	4417.12
757.328	4371.12
758.083	4304.12
758.837	4257.12
759.592	4147.12
760.347	4097.12
761.101	4050.12
761.855	3968.12
762.61	3953.12
763.364	3845.12
764.118	3777.12
764.872	3730.12
765.626	3664.12
766.38	3593.12
767.134	3538.12
767.888	3430.12
768.642	3401.12
769.396	3314.12
770.149	3242.12
770.903	3198.12
771.656	3151.12
772.409	3079.12
773.163	3030.12
773.916	2974.12
774.669	2919.12
775.422	2877.12
776.175	2827.12
776.928	2769.12
777.681	2704.12
778.434	2684.12
779.186	2619.12
779.939	2583.12
780.692	2523.12
781.444	2470.12
782.197	2432.12
782.949	2376.12
783.701	2348.12
784.453	2285.12
785.205	2240.12
785.957	2207.12
786.709	2193.12
787.461	2136.12
788.213	2110.12
788.965	2084.12
789.716	2011.12
790.468	1994.12
791.22	1962.12
791.971	1931.12
792.722	1906.12
793.474	1865.12
794.225	1833.12
794.976	1793.12
795.727	1782.12
796.478	1738.12
797.229	1717.12
797.98	1662.12
798.731	1664.12
799.481	1610.12
800.232	1580.12
800.982	1549.12
801.733	1532.12
802.483	1517.12
803.233	1478.12
803.984	1422.12
804.734	1403.12
805.484	1399.12
806.234	1350.12
806.984	1333.12
807.734	1305.12
808.484	1256.12
809.233	1225.12
809.983	1201.12
810.732	1183.12
811.482	1164.12
812.231	1129.12
812.981	1096.12
813.73	1077.12
814.479	1047.12
815.228	1027.12
815.977	1007.12
816.726	966.12
817.475	953.12
818.224	925.12
818.973	904.12
819.721	887.12
820.47	878.12
821.219	866.12
821.967	845.12
822.715	825.12
823.464	796.12
824.212	803.12
824.96	781.12
825.708	788.12
826.456	779.12
827.204	768.12
827.952	758.12
828.7	746.12
829.447	735.12
830.195	735.12
830.942	733.12
831.69	722.12
832.437	711.12
833.185	719.12
833.932	716.12
834.679	709.12
835.426	700.12
836.173	708.12
836.92	685.12
837.667	663.12
838.414	649.12
839.16	645.12
839.907	645.12
840.654	645.12
841.4	633.12
842.147	619.12
842.893	602.12
843.639	592.12
844.385	581.12
845.131	577.12
845.877	564.12
846.623	545.12
847.369	537.12
848.115	520.12
848.861	502.12
849.607	502.12
850.352	491.12
851.098	481.12
851.843	468.12
852.588	461.12
853.334	444.12
854.079	436.12
854.824	434.12
855.569	422.12
856.314	421.12
857.059	415.12
857.804	407.12
858.549	394.12
859.293	388.12
860.038	387.12
860.783	376.12
861.527	377.12
862.271	378.12
863.016	369.12
863.76	369.12
864.504	356.12
865.248	362.12
865.992	356.12
866.736	365.12
867.48	361.12
868.224	348.12
868.968	349.12
869.711	349.12
870.455	349.12
871.198	350.12
871.942	345.12
872.685	345.12
873.428	343.12
874.171	338.12
874.915	332.12
875.658	339.12
876.401	324.12
877.143	323.12
877.886	331.12
878.629	319.12
879.372	316.12
880.114	307.12
880.857	313.12
881.599	309.12
882.342	310.12
883.084	311.12
883.826	299.12
884.568	305.12
885.31	308.12
886.052	306.12
886.794	311.12
887.536	306.12
888.278	309.12
889.019	306.12
889.761	316.12
890.503	307.12
891.244	307.12
891.985	304.12
892.727	309.12
893.468	303.12
894.209	305.12
894.95	314.12
895.691	306.12
896.432	315.12
897.173	301.12
897.914	298.12
898.654	300.12
899.395	305.12
900.136	299.12
900.876	300.12
901.617	300.12
902.357	299.12
903.097	297.12
903.837	294.12
904.577	284.12
905.317	288.12
906.057	287.12
906.797	285.12
907.537	285.12
908.277	275.12
909.016	272.12
909.756	272.12
910.496	265.12
911.235	264.12
911.974	256.12
912.714	253.12
913.453	254.12
914.192	249.12
914.931	244.12
915.67	234.12
916.409	227.12
917.148	222.12
917.886	230.12
918.625	216.12
919.364	222.12
920.102	210.12
920.841	203.12
921.579	200.12
922.317	199.12
923.055	191.12
923.794	186.12
924.532	177.12
925.27	183.12
926.008	170.12
926.745	171.12
927.483	156.12
928.221	152.12
928.958	148.12
929.696	139.12
930.433	141.12
931.171	133.12
931.908	134.12
932.645	124.12
933.383	116.12
934.12	109.12
934.857	101.12
935.594	95.12
936.33	92.12
937.067	83.12
937.804	84.12
938.541	77.12
939.277	75.12
940.014	67.12
940.75	66.12
941.486	64.12
942.223	62.12
942.959	60.12
943.695	61.12
944.431	56.12
945.167	56.12
945.903	53.12
946.638	54.12
947.374	48.12
948.11	51.12
948.845	49.12
949.581	51.12
950.316	45.12
951.052	43.12
951.787	48.12
952.522	43.12
953.257	45.12
953.992	40.12
954.727	43.12
955.462	42.12
956.197	41.12
956.932	40.12
957.666	36.12
958.401	38.12
959.135	37.12
959.87	39.12
960.604	38.12
961.339	40.12
962.073	37.12
962.807	40.12
963.541	39.12
964.275	39.12
965.009	40.12
965.743	37.12
966.476	38.12
967.21	41.12
967.944	38.12
968.677	41.12
969.411	36.12
970.144	41.12
970.877	40.12
971.611	40.12
972.344	41.12
973.077	37.12
973.81	44.12
974.543	41.12
975.276	39.12
976.008	38.12
976.741	41.12
977.474	45.12
978.206	39.12
978.939	41.12
979.671	42.12
980.403	39.12
981.136	43.12
981.868	39.12
982.6	44.12
983.332	38.12
984.064	43.12
984.796	42.12
985.527	47.12
986.259	45.12
986.991	3.12
987.722	-1.88
988.454	-0.88
989.185	-2.88
989.917	29.12
990.648	29.12
991.379	29.12
992.11	28.12
992.841	27.12
993.572	27.12
994.303	45.12
995.034	45.12
995.764	42.12
996.495	45.12
997.226	44.12
997.956	42.12
998.687	3.12
999.417	0.12
1000.147	0.12
1000.877	-0.88
