Data from FLMS155811_13-11-52-476.txt Node
Date: Wed Mar 25 13:11:52 MDT 2020
User: ECEn Student
Spectrometer: FLMS15581
Trigger mode: 0
Integration Time (sec): 1.000000E-1
Scans to average: 1
Electric dark correction enabled: true
Nonlinearity correction enabled: false
Boxcar width: 0
XAxis mode: Wavelengths
Number of Pixels in Spectrum: 2048
>>>>>Begin Spectral Data<<<<<
298.026	-5.17
298.106	-5.17
298.185	-5.17
298.265	-74.05
298.344	-92.41
298.424	-51.09
298.503	-142.93
298.583	-92.41
298.662	-44.2
298.741	-99.3
298.821	-55.68
298.9	-14.35
298.98	33.87
299.059	-51.09
299.138	-0.57
299.217	66.01
299.297	54.53
299.376	20.09
299.455	150.96
299.535	102.75
299.614	123.41
299.693	153.26
299.772	105.04
299.852	187.7
299.931	196.88
300.01	173.92
300.089	217.55
300.168	233.62
300.247	229.03
300.327	251.99
300.406	258.88
300.485	286.43
300.564	307.09
300.643	332.35
300.722	293.32
300.801	385.16
300.88	366.79
300.959	302.5
301.038	348.42
301.117	392.04
301.196	396.64
301.275	346.12
301.354	442.56
301.433	392.04
301.512	369.08
301.591	389.75
301.67	346.12
301.749	394.34
301.828	336.94
301.907	325.46
301.985	389.75
302.064	382.86
302.143	378.27
302.222	373.68
302.301	371.38
302.38	353.01
302.458	382.86
302.537	366.79
302.616	419.6
302.695	371.38
302.773	371.38
302.852	369.08
302.931	327.76
303.01	341.53
303.088	394.34
303.167	330.05
303.246	339.24
303.324	350.72
303.403	353.01
303.481	291.02
303.56	382.86
303.639	318.57
303.717	348.42
303.796	343.83
303.874	323.16
303.953	300.2
304.032	392.04
304.11	304.8
304.189	343.83
304.267	385.16
304.346	336.94
304.424	300.2
304.502	375.97
304.581	339.24
304.659	346.12
304.738	350.72
304.816	336.94
304.895	359.9
304.973	291.02
305.051	272.65
305.13	366.79
305.208	323.16
305.286	330.05
305.365	355.31
305.443	258.88
305.521	318.57
305.6	375.97
305.678	341.53
305.756	346.12
305.834	408.12
305.913	336.94
305.991	396.64
306.069	348.42
306.147	382.86
306.225	353.01
306.304	369.08
306.382	353.01
306.46	300.2
306.538	341.53
306.616	348.42
306.694	293.32
306.772	380.56
306.85	336.94
306.929	339.24
307.007	350.72
307.085	369.08
307.163	362.2
307.241	378.27
307.319	359.9
307.397	334.64
307.475	362.2
307.553	385.16
307.631	348.42
307.709	375.97
307.786	348.42
307.864	389.75
307.942	396.64
308.02	336.94
308.098	382.86
308.176	355.31
308.254	343.83
308.332	339.24
308.409	304.8
308.487	332.35
308.565	313.98
308.643	353.01
308.721	332.35
308.798	357.6
308.876	320.87
308.954	380.56
309.032	334.64
309.109	307.09
309.187	295.61
309.265	346.12
309.342	394.34
309.42	339.24
309.498	325.46
309.575	366.79
309.653	336.94
309.731	323.16
309.808	373.68
309.886	366.79
309.963	373.68
310.041	313.98
310.119	394.34
310.196	396.64
310.274	336.94
310.351	387.45
310.429	389.75
310.506	373.68
310.584	348.42
310.661	359.9
310.738	385.16
310.816	339.24
310.893	323.16
310.971	355.31
311.048	394.34
311.126	346.12
311.203	382.86
311.28	353.01
311.358	350.72
311.435	350.72
311.512	396.64
311.59	350.72
311.667	431.08
311.744	421.89
311.821	343.83
311.899	375.97
311.976	412.71
312.053	346.12
312.13	387.45
312.208	334.64
312.285	346.12
312.362	313.98
312.439	332.35
312.516	380.56
312.593	380.56
312.671	387.45
312.748	353.01
312.825	366.79
312.902	454.04
312.979	375.97
313.056	385.16
313.133	366.79
313.21	378.27
313.287	389.75
313.364	355.31
313.441	309.39
313.518	387.45
313.595	408.12
313.672	380.56
313.749	382.86
313.826	346.12
313.903	403.52
313.98	389.75
314.057	307.09
314.134	359.9
314.211	355.31
314.287	405.82
314.364	398.93
314.441	389.75
314.518	366.79
314.595	424.19
314.672	357.6
314.748	417.3
314.825	375.97
314.902	327.76
314.979	348.42
315.055	332.35
315.132	375.97
315.209	442.56
315.286	364.49
315.362	373.68
315.439	366.79
315.516	392.04
315.592	385.16
315.669	309.39
315.746	355.31
315.822	401.23
315.899	355.31
315.975	396.64
316.052	405.82
316.128	410.41
316.205	401.23
316.282	378.27
316.358	421.89
316.435	421.89
316.511	364.49
316.588	332.35
316.664	403.52
316.741	364.49
316.817	378.27
316.893	373.68
316.97	403.52
317.046	387.45
317.123	382.86
317.199	353.01
317.275	332.35
317.352	359.9
317.428	398.93
317.504	433.37
317.581	362.2
317.657	320.87
317.733	403.52
317.81	426.48
317.886	348.42
317.962	398.93
318.038	295.61
318.115	369.08
318.191	394.34
318.267	373.68
318.343	389.75
318.419	426.48
318.496	362.2
318.572	341.53
318.648	359.9
318.724	398.93
318.8	417.3
318.876	403.52
318.952	353.01
319.028	431.08
319.105	463.22
319.181	408.12
319.257	387.45
319.333	375.97
319.409	410.41
319.485	343.83
319.561	408.12
319.637	357.6
319.713	424.19
319.789	309.39
319.865	440.26
319.94	320.87
320.016	378.27
320.092	385.16
320.168	483.88
320.244	433.37
320.32	415
320.396	362.2
320.472	415
320.547	401.23
320.623	444.85
320.699	449.44
320.775	421.89
320.851	362.2
320.926	447.15
321.002	366.79
321.078	382.86
321.154	405.82
321.229	431.08
321.305	415
321.381	387.45
321.456	392.04
321.532	398.93
321.608	392.04
321.683	403.52
321.759	398.93
321.835	387.45
321.91	408.12
321.986	410.41
322.061	401.23
322.137	426.48
322.212	412.71
322.288	389.75
322.364	364.49
322.439	350.72
322.515	380.56
322.59	378.27
322.666	417.3
322.741	410.41
322.816	330.05
322.892	362.2
322.967	412.71
323.043	343.83
323.118	387.45
323.193	369.08
323.269	339.24
323.344	359.9
323.42	435.67
323.495	440.26
323.57	385.16
323.646	373.68
323.721	330.05
323.796	435.67
323.871	396.64
323.947	364.49
324.022	382.86
324.097	419.6
324.172	408.12
324.248	412.71
324.323	350.72
324.398	410.41
324.473	456.33
324.548	362.2
324.623	415
324.699	412.71
324.774	378.27
324.849	401.23
324.924	339.24
324.999	398.93
325.074	378.27
325.149	380.56
325.224	410.41
325.299	392.04
325.374	408.12
325.449	385.16
325.524	357.6
325.599	396.64
325.674	355.31
325.749	385.16
325.824	327.76
325.899	424.19
325.974	311.68
326.049	364.49
326.124	378.27
326.199	369.08
326.273	302.5
326.348	396.64
326.423	433.37
326.498	467.81
326.573	417.3
326.648	369.08
326.722	375.97
326.797	421.89
326.872	355.31
326.947	394.34
327.021	398.93
327.096	396.64
327.171	369.08
327.245	369.08
327.32	378.27
327.395	362.2
327.47	440.26
327.544	412.71
327.619	444.85
327.693	454.04
327.768	426.48
327.843	437.96
327.917	396.64
327.992	398.93
328.066	389.75
328.141	371.38
328.215	396.64
328.29	389.75
328.364	417.3
328.439	366.79
328.513	403.52
328.588	362.2
328.662	431.08
328.737	348.42
328.811	355.31
328.886	442.56
328.96	362.2
329.035	369.08
329.109	437.96
329.183	419.6
329.258	389.75
329.332	366.79
329.406	394.34
329.481	410.41
329.555	415
329.629	426.48
329.704	355.31
329.778	415
329.852	378.27
329.926	389.75
330.001	371.38
330.075	410.41
330.149	394.34
330.223	417.3
330.297	371.38
330.372	371.38
330.446	355.31
330.52	355.31
330.594	467.81
330.668	412.71
330.742	366.79
330.816	437.96
330.89	451.74
330.964	460.92
331.038	424.19
331.113	364.49
331.187	401.23
331.261	375.97
331.335	389.75
331.409	408.12
331.483	387.45
331.557	419.6
331.63	433.37
331.704	394.34
331.778	412.71
331.852	408.12
331.926	392.04
332	366.79
332.074	364.49
332.148	364.49
332.222	403.52
332.295	387.45
332.369	378.27
332.443	415
332.517	401.23
332.591	382.86
332.665	330.05
332.738	394.34
332.812	357.6
332.886	401.23
332.959	437.96
333.033	419.6
333.107	364.49
333.181	419.6
333.254	405.82
333.328	355.31
333.402	442.56
333.475	378.27
333.549	424.19
333.622	371.38
333.696	373.68
333.77	389.75
333.843	408.12
333.917	385.16
333.99	375.97
334.064	447.15
334.137	330.05
334.211	403.52
334.284	401.23
334.358	396.64
334.431	387.45
334.505	415
334.578	433.37
334.652	405.82
334.725	362.2
334.799	398.93
334.872	449.44
334.945	398.93
335.019	385.16
335.092	371.38
335.165	421.89
335.239	405.82
335.312	357.6
335.385	396.64
335.459	398.93
335.532	387.45
335.605	385.16
335.678	373.68
335.752	417.3
335.825	417.3
335.898	362.2
335.971	336.94
336.045	392.04
336.118	412.71
336.191	417.3
336.264	398.93
336.337	424.19
336.41	387.45
336.483	410.41
336.557	408.12
336.63	375.97
336.703	385.16
336.776	467.81
336.849	392.04
336.922	320.87
336.995	456.33
337.068	415
337.141	373.68
337.214	382.86
337.287	437.96
337.36	424.19
337.433	394.34
337.506	392.04
337.579	401.23
337.652	382.86
337.725	403.52
337.797	336.94
337.87	410.41
337.943	428.78
338.016	451.74
338.089	401.23
338.162	470.11
338.235	410.41
338.307	378.27
338.38	385.16
338.453	387.45
338.526	343.83
338.598	378.27
338.671	477
338.744	442.56
338.817	408.12
338.889	403.52
338.962	421.89
339.035	405.82
339.107	408.12
339.18	357.6
339.253	378.27
339.325	378.27
339.398	389.75
339.47	426.48
339.543	396.64
339.616	375.97
339.688	417.3
339.761	431.08
339.833	412.71
339.906	385.16
339.978	327.76
340.051	403.52
340.123	387.45
340.196	447.15
340.268	447.15
340.341	405.82
340.413	442.56
340.485	343.83
340.558	419.6
340.63	378.27
340.703	421.89
340.775	426.48
340.847	362.2
340.92	415
340.992	403.52
341.064	387.45
341.137	417.3
341.209	440.26
341.281	408.12
341.354	355.31
341.426	398.93
341.498	403.52
341.57	415
341.643	444.85
341.715	364.49
341.787	435.67
341.859	460.92
341.931	417.3
342.003	467.81
342.076	474.7
342.148	421.89
342.22	389.75
342.292	394.34
342.364	382.86
342.436	460.92
342.508	382.86
342.58	375.97
342.652	415
342.724	451.74
342.796	408.12
342.868	470.11
342.94	392.04
343.012	357.6
343.084	366.79
343.156	421.89
343.228	389.75
343.3	378.27
343.372	415
343.444	359.9
343.516	428.78
343.588	403.52
343.66	431.08
343.731	394.34
343.803	366.79
343.875	451.74
343.947	396.64
344.019	433.37
344.09	341.53
344.162	415
344.234	371.38
344.306	403.52
344.377	385.16
344.449	380.56
344.521	385.16
344.593	458.63
344.664	401.23
344.736	442.56
344.808	449.44
344.879	327.76
344.951	336.94
345.023	341.53
345.094	421.89
345.166	392.04
345.237	392.04
345.309	460.92
345.38	426.48
345.452	419.6
345.524	373.68
345.595	437.96
345.667	426.48
345.738	380.56
345.81	323.16
345.881	410.41
345.953	419.6
346.024	426.48
346.095	398.93
346.167	398.93
346.238	447.15
346.31	410.41
346.381	444.85
346.452	371.38
346.524	495.36
346.595	456.33
346.666	396.64
346.738	417.3
346.809	412.71
346.88	392.04
346.952	392.04
347.023	417.3
347.094	375.97
347.165	401.23
347.237	364.49
347.308	401.23
347.379	375.97
347.45	410.41
347.521	410.41
347.593	433.37
347.664	392.04
347.735	428.78
347.806	447.15
347.877	428.78
347.948	362.2
348.019	447.15
348.09	433.37
348.161	410.41
348.233	378.27
348.304	385.16
348.375	433.37
348.446	467.81
348.517	465.52
348.588	385.16
348.659	369.08
348.73	435.67
348.801	419.6
348.871	378.27
348.942	369.08
349.013	371.38
349.084	380.56
349.155	456.33
349.226	398.93
349.297	334.64
349.368	421.89
349.439	408.12
349.509	373.68
349.58	444.85
349.651	403.52
349.722	401.23
349.793	421.89
349.863	474.7
349.934	449.44
350.005	447.15
350.076	470.11
350.146	447.15
350.217	437.96
350.288	428.78
350.358	488.48
350.429	463.22
350.5	433.37
350.57	428.78
350.641	369.08
350.711	467.81
350.782	389.75
350.853	463.22
350.923	424.19
350.994	426.48
351.064	428.78
351.135	467.81
351.205	348.42
351.276	518.32
351.346	449.44
351.417	497.66
351.487	451.74
351.558	433.37
351.628	431.08
351.699	415
351.769	389.75
351.84	486.18
351.91	394.34
351.98	465.52
352.051	477
352.121	440.26
352.191	451.74
352.262	447.15
352.332	419.6
352.402	387.45
352.473	456.33
352.543	472.4
352.613	483.88
352.683	419.6
352.754	458.63
352.824	474.7
352.894	490.77
352.964	437.96
353.035	424.19
353.105	401.23
353.175	456.33
353.245	435.67
353.315	470.11
353.385	509.14
353.455	483.88
353.526	419.6
353.596	435.67
353.666	518.32
353.736	504.55
353.806	396.64
353.876	479.29
353.946	426.48
354.016	499.96
354.086	483.88
354.156	504.55
354.226	426.48
354.296	486.18
354.366	509.14
354.436	483.88
354.506	460.92
354.576	477
354.645	465.52
354.715	573.43
354.785	516.03
354.855	495.36
354.925	465.52
354.995	529.8
355.065	559.65
355.134	499.96
355.204	548.17
355.274	561.95
355.344	607.87
355.414	580.32
355.483	596.39
355.553	607.87
355.623	614.76
355.693	559.65
355.762	665.27
355.832	589.5
355.902	660.68
355.971	741.04
356.041	750.22
356.111	669.86
356.18	674.45
356.25	727.26
356.319	658.38
356.389	662.97
356.459	704.3
356.528	798.44
356.598	766.29
356.667	851.25
356.737	793.85
356.806	869.61
356.876	855.84
356.945	908.65
357.015	952.27
357.084	894.87
357.154	952.27
357.223	995.89
357.292	1067.07
357.362	1007.37
357.431	1023.45
357.501	1007.37
357.57	1156.61
357.639	1106.1
357.709	1108.4
357.778	1230.09
357.847	1195.65
357.917	1250.75
357.986	1312.74
358.055	1287.49
358.124	1370.14
358.194	1381.62
358.263	1413.77
358.332	1374.74
358.401	1478.06
358.471	1634.18
358.54	1528.57
358.609	1654.85
358.678	1737.51
358.747	1760.47
358.816	1829.35
358.886	1721.43
358.955	1969.4
359.024	1973.99
359.093	1948.74
359.162	2061.24
359.231	2107.16
359.3	2134.71
359.369	2316.1
359.438	2332.17
359.507	2382.68
359.576	2465.34
359.645	2465.34
359.714	2616.88
359.783	2752.34
359.852	2864.85
359.921	2919.95
359.99	3053.12
360.059	3211.54
360.128	3312.57
360.197	3395.22
360.266	3624.83
360.334	3787.84
360.403	3877.39
360.472	3918.71
360.541	4111.58
360.61	4345.77
360.679	4531.75
360.747	4545.52
360.816	4924.37
360.885	4942.73
360.954	5179.22
361.022	5514.44
361.091	5613.17
361.16	5877.21
361.228	6097.63
361.297	6324.93
361.366	6492.54
361.434	6781.84
361.503	7224.97
361.572	7404.06
361.64	7633.66
361.709	7950.51
361.778	8232.92
361.846	8492.37
361.915	8806.92
361.983	9188.06
362.052	9273.01
362.12	9729.91
362.189	9915.89
362.257	9911.3
362.326	10446.27
362.394	10829.7
362.463	11024.86
362.531	11242.98
362.6	11355.49
362.668	11833.06
362.737	12058.07
362.805	12627.48
362.873	12696.36
362.942	13178.52
363.01	13486.19
363.079	13782.37
363.147	14099.22
363.215	14395.41
363.284	14604.34
363.352	14877.57
363.42	15449.27
363.488	15671.99
363.557	16103.64
363.625	16356.2
363.693	16353.9
363.761	16907.24
363.83	17168.99
363.898	17614.41
363.966	17864.68
364.034	18654.5
364.102	18801.45
364.171	19510.91
364.239	20174.46
364.307	20773.72
364.375	21310.99
364.443	21907.95
364.511	22380.93
364.579	23168.46
364.647	24233.81
364.715	24470.3
364.783	25145.32
364.851	25987.96
364.919	26552.78
364.987	26809.93
365.055	27974.01
365.123	28605.41
365.191	29165.64
365.259	29608.76
365.327	29884.29
365.395	30419.26
365.463	31112.65
365.531	31411.13
365.599	31847.37
365.667	32504.03
365.735	33162.99
365.802	33675
365.87	34168.64
365.938	34896.47
366.006	35142.15
366.074	35631.2
366.142	36871.04
366.209	37121.31
366.277	37426.68
366.345	37667.76
366.413	38354.27
366.48	38377.23
366.548	38271.61
366.616	39288.74
366.683	39132.61
366.751	39743.35
366.819	39695.13
366.886	40096.94
366.954	40236.99
367.022	40498.74
367.089	40969.42
367.157	40758.19
367.224	41389.59
367.292	41506.69
367.36	41733.99
367.427	42082.98
367.495	42546.78
367.562	42702.91
367.63	43169
367.697	43807.29
367.765	43871.58
367.832	44622.37
367.9	44282.56
367.967	44431.8
368.034	44470.83
368.102	44971.36
368.169	45591.29
368.237	46169.88
368.304	46404.07
368.371	46466.07
368.439	46500.51
368.506	47269.67
368.573	47614.07
368.641	47864.34
368.708	47430.39
368.775	47747.24
368.843	48259.25
368.91	48380.94
368.977	48874.58
369.044	49106.48
369.112	48768.96
369.179	49182.25
369.246	49026.12
369.313	49517.46
369.38	50045.55
369.448	50249.89
369.515	49877.94
369.582	50415.2
369.649	50610.36
369.716	50856.04
369.783	50617.25
369.85	51129.26
369.917	50911.14
369.984	51055.79
370.052	51076.45
370.119	51475.96
370.186	51154.52
370.253	51457.59
370.32	51104.01
370.387	51494.33
370.454	51459.89
370.521	51441.52
370.587	51317.53
370.654	50713.68
370.721	51354.27
370.788	51365.75
370.855	50699.91
370.922	50798.64
370.989	50302.7
371.056	49981.26
371.123	49664.41
371.189	48858.51
371.256	48523.29
371.323	48362.57
371.39	47852.86
371.457	47363.81
371.523	46656.64
371.59	45588.99
371.657	45256.07
371.724	43651.16
371.79	42420.5
371.857	41469.95
371.924	40544.66
371.991	39171.64
372.057	37766.49
372.124	36209.79
372.191	34770.19
372.257	32889.76
372.324	31785.38
372.39	29801.63
372.457	28366.62
372.524	26791.56
372.59	25402.48
372.657	23600.11
372.723	21924.02
372.79	20674.99
372.856	19065.49
372.923	17855.49
372.989	16895.76
373.056	15630.66
373.122	14445.92
373.189	13479.3
373.255	12659.62
373.322	11440.44
373.388	10719.49
373.454	9934.26
373.521	9093.92
373.587	8352.31
373.654	7665.8
373.72	7250.22
373.786	6641.78
373.853	6148.14
373.919	5675.16
373.985	5323.87
374.052	5009.32
374.118	4540.93
374.184	4265.41
374.25	3863.61
374.317	3519.21
374.383	3420.48
374.449	3223.02
374.515	2933.73
374.581	2779.89
374.648	2704.13
374.714	2497.48
374.78	2325.28
374.846	2166.86
374.912	2091.09
374.978	2047.47
375.044	1875.27
375.11	1785.72
375.177	1719.14
375.243	1553.82
375.309	1494.13
375.375	1459.69
375.441	1432.14
375.507	1390.81
375.573	1211.72
375.639	1163.5
375.705	1090.03
375.771	1149.73
375.837	1106.1
375.903	1048.7
375.968	1002.78
376.034	1007.37
376.1	890.28
376.166	890.28
376.232	917.83
376.298	899.46
376.364	819.1
376.43	832.88
376.495	805.33
376.561	731.85
376.627	676.75
376.693	766.29
376.759	704.3
376.824	750.22
376.89	667.56
376.956	612.46
377.022	656.08
377.087	672.16
377.153	640.01
377.219	630.83
377.284	584.91
377.35	623.94
377.416	628.53
377.481	630.83
377.547	676.75
377.613	594.09
377.678	561.95
377.744	536.69
377.809	584.91
377.875	506.84
377.94	543.58
378.006	541.28
378.071	518.32
378.137	456.33
378.202	582.61
378.268	555.06
378.333	502.25
378.399	555.06
378.464	538.99
378.53	504.55
378.595	454.04
378.661	410.41
378.726	513.73
378.791	470.11
378.857	428.78
378.922	509.14
378.987	433.37
379.053	493.07
379.118	504.55
379.183	566.54
379.249	454.04
379.314	527.51
379.379	497.66
379.444	488.48
379.51	442.56
379.575	477
379.64	421.89
379.705	389.75
379.771	398.93
379.836	389.75
379.901	447.15
379.966	424.19
380.031	499.96
380.096	472.4
380.161	463.22
380.227	451.74
380.292	444.85
380.357	366.79
380.422	426.48
380.487	463.22
380.552	477
380.617	449.44
380.682	465.52
380.747	385.16
380.812	431.08
380.877	433.37
380.942	405.82
381.007	428.78
381.072	428.78
381.137	369.08
381.202	403.52
381.266	440.26
381.331	465.52
381.396	442.56
381.461	380.56
381.526	428.78
381.591	479.29
381.656	387.45
381.72	389.75
381.785	458.63
381.85	488.48
381.915	444.85
381.979	426.48
382.044	458.63
382.109	437.96
382.174	463.22
382.238	398.93
382.303	375.97
382.368	483.88
382.432	442.56
382.497	449.44
382.562	417.3
382.626	341.53
382.691	387.45
382.756	421.89
382.82	447.15
382.885	421.89
382.949	380.56
383.014	435.67
383.078	424.19
383.143	392.04
383.208	447.15
383.272	398.93
383.337	417.3
383.401	403.52
383.465	364.49
383.53	437.96
383.594	472.4
383.659	412.71
383.723	341.53
383.788	346.12
383.852	460.92
383.916	454.04
383.981	456.33
384.045	417.3
384.109	364.49
384.174	385.16
384.238	412.71
384.302	447.15
384.367	348.42
384.431	456.33
384.495	493.07
384.56	410.41
384.624	364.49
384.688	424.19
384.752	437.96
384.816	378.27
384.881	447.15
384.945	437.96
385.009	421.89
385.073	405.82
385.137	431.08
385.201	392.04
385.265	382.86
385.33	460.92
385.394	417.3
385.458	442.56
385.522	401.23
385.586	451.74
385.65	412.71
385.714	362.2
385.778	426.48
385.842	460.92
385.906	426.48
385.97	415
386.034	371.38
386.098	394.34
386.162	371.38
386.226	366.79
386.29	385.16
386.354	426.48
386.417	419.6
386.481	394.34
386.545	396.64
386.609	396.64
386.673	421.89
386.737	392.04
386.8	465.52
386.864	421.89
386.928	403.52
386.992	405.82
387.056	382.86
387.119	456.33
387.183	433.37
387.247	437.96
387.31	426.48
387.374	470.11
387.438	387.45
387.502	357.6
387.565	442.56
387.629	403.52
387.692	408.12
387.756	417.3
387.82	451.74
387.883	389.75
387.947	378.27
388.01	348.42
388.074	435.67
388.138	339.24
388.201	366.79
388.265	444.85
388.328	387.45
388.392	449.44
388.455	369.08
388.519	387.45
388.582	398.93
388.645	371.38
388.709	309.39
388.772	398.93
388.836	403.52
388.899	403.52
388.962	408.12
389.026	392.04
389.089	421.89
389.153	405.82
389.216	474.7
389.279	454.04
389.343	387.45
389.406	364.49
389.469	417.3
389.532	401.23
389.596	389.75
389.659	380.56
389.722	373.68
389.785	444.85
389.848	415
389.912	380.56
389.975	385.16
390.038	415
390.101	375.97
390.164	463.22
390.227	403.52
390.291	442.56
390.354	417.3
390.417	369.08
390.48	362.2
390.543	387.45
390.606	408.12
390.669	394.34
390.732	371.38
390.795	417.3
390.858	389.75
390.921	375.97
390.984	419.6
391.047	398.93
391.11	371.38
391.173	444.85
391.236	424.19
391.299	392.04
391.362	385.16
391.424	389.75
391.487	320.87
391.55	366.79
391.613	373.68
391.676	346.12
391.739	398.93
391.802	410.41
391.864	405.82
391.927	378.27
391.99	378.27
392.053	348.42
392.115	387.45
392.178	408.12
392.241	412.71
392.304	431.08
392.366	373.68
392.429	371.38
392.492	375.97
392.554	392.04
392.617	405.82
392.68	355.31
392.742	467.81
392.805	359.9
392.867	415
392.93	380.56
392.992	465.52
393.055	369.08
393.118	348.42
393.18	408.12
393.243	449.44
393.305	424.19
393.368	394.34
393.43	392.04
393.493	408.12
393.555	369.08
393.618	426.48
393.68	401.23
393.742	392.04
393.805	375.97
393.867	463.22
393.93	398.93
393.992	442.56
394.054	387.45
394.117	405.82
394.179	426.48
394.241	375.97
394.304	375.97
394.366	375.97
394.428	398.93
394.49	357.6
394.553	392.04
394.615	355.31
394.677	392.04
394.739	348.42
394.802	396.64
394.864	387.45
394.926	346.12
394.988	327.76
395.05	401.23
395.112	403.52
395.174	394.34
395.237	419.6
395.299	382.86
395.361	428.78
395.423	396.64
395.485	369.08
395.547	396.64
395.609	392.04
395.671	456.33
395.733	394.34
395.795	394.34
395.857	408.12
395.919	405.82
395.981	392.04
396.043	350.72
396.105	359.9
396.167	421.89
396.229	348.42
396.291	350.72
396.352	403.52
396.414	394.34
396.476	405.82
396.538	313.98
396.6	398.93
396.662	396.64
396.724	359.9
396.785	412.71
396.847	366.79
396.909	375.97
396.971	366.79
397.032	366.79
397.094	355.31
397.156	350.72
397.218	401.23
397.279	382.86
397.341	378.27
397.403	396.64
397.464	371.38
397.526	405.82
397.588	336.94
397.649	380.56
397.711	334.64
397.772	371.38
397.834	398.93
397.896	437.96
397.957	403.52
398.019	398.93
398.08	371.38
398.142	412.71
398.203	428.78
398.265	355.31
398.326	398.93
398.388	408.12
398.449	378.27
398.511	364.49
398.572	433.37
398.633	353.01
398.695	389.75
398.756	348.42
398.818	336.94
398.879	343.83
398.94	330.05
399.002	389.75
399.063	451.74
399.124	364.49
399.186	371.38
399.247	447.15
399.308	403.52
399.369	371.38
399.431	355.31
399.492	435.67
399.553	336.94
399.614	373.68
399.676	330.05
399.737	355.31
399.798	366.79
399.859	364.49
399.92	332.35
399.981	405.82
400.042	373.68
400.104	419.6
400.165	419.6
400.226	353.01
400.287	408.12
400.348	355.31
400.409	387.45
400.47	378.27
400.531	417.3
400.592	403.52
400.653	396.64
400.714	417.3
400.775	380.56
400.836	394.34
400.897	428.78
400.958	371.38
401.019	431.08
401.08	417.3
401.141	387.45
401.201	332.35
401.262	375.97
401.323	392.04
401.384	380.56
401.445	403.52
401.506	421.89
401.567	309.39
401.627	392.04
401.688	435.67
401.749	350.72
401.81	341.53
401.87	382.86
401.931	401.23
401.992	472.4
402.053	389.75
402.113	394.34
402.174	382.86
402.235	373.68
402.295	362.2
402.356	343.83
402.417	318.57
402.477	415
402.538	291.02
402.598	375.97
402.659	366.79
402.719	378.27
402.78	362.2
402.841	451.74
402.901	336.94
402.962	396.64
403.022	412.71
403.083	330.05
403.143	385.16
403.204	355.31
403.264	394.34
403.324	378.27
403.385	373.68
403.445	433.37
403.506	382.86
403.566	419.6
403.627	421.89
403.687	392.04
403.747	389.75
403.808	323.16
403.868	428.78
403.928	378.27
403.989	355.31
404.049	385.16
404.109	357.6
404.169	346.12
404.23	440.26
404.29	405.82
404.35	382.86
404.41	387.45
404.47	364.49
404.531	378.27
404.591	371.38
404.651	392.04
404.711	362.2
404.771	401.23
404.831	449.44
404.892	398.93
404.952	318.57
405.012	353.01
405.072	428.78
405.132	382.86
405.192	398.93
405.252	378.27
405.312	431.08
405.372	396.64
405.432	336.94
405.492	417.3
405.552	353.01
405.612	382.86
405.672	398.93
405.732	364.49
405.792	385.16
405.852	431.08
405.912	415
405.971	353.01
406.031	378.27
406.091	428.78
406.151	387.45
406.211	408.12
406.271	380.56
406.33	311.68
406.39	364.49
406.45	408.12
406.51	334.64
406.57	293.32
406.629	369.08
406.689	396.64
406.749	440.26
406.808	366.79
406.868	369.08
406.928	343.83
406.988	389.75
407.047	373.68
407.107	405.82
407.166	412.71
407.226	394.34
407.286	431.08
407.345	336.94
407.405	403.52
407.464	359.9
407.524	332.35
407.584	364.49
407.643	401.23
407.703	437.96
407.762	325.46
407.822	357.6
407.881	387.45
407.941	369.08
408	369.08
408.059	279.54
408.119	410.41
408.178	353.01
408.238	348.42
408.297	357.6
408.356	339.24
408.416	359.9
408.475	348.42
408.535	350.72
408.594	401.23
408.653	405.82
408.712	353.01
408.772	346.12
408.831	440.26
408.89	313.98
408.95	385.16
409.009	394.34
409.068	309.39
409.127	369.08
409.186	302.5
409.246	341.53
409.305	392.04
409.364	387.45
409.423	366.79
409.482	387.45
409.541	394.34
409.6	387.45
409.66	385.16
409.719	355.31
409.778	380.56
409.837	428.78
409.896	403.52
409.955	382.86
410.014	359.9
410.073	362.2
410.132	318.57
410.191	433.37
410.25	350.72
410.309	371.38
410.368	403.52
410.427	318.57
410.486	417.3
410.545	394.34
410.603	339.24
410.662	392.04
410.721	392.04
410.78	394.34
410.839	281.84
410.898	346.12
410.957	382.86
411.015	433.37
411.074	359.9
411.133	369.08
411.192	350.72
411.25	364.49
411.309	357.6
411.368	403.52
411.427	454.04
411.485	343.83
411.544	341.53
411.603	318.57
411.661	364.49
411.72	421.89
411.779	389.75
411.837	343.83
411.896	415
411.955	346.12
412.013	341.53
412.072	389.75
412.13	353.01
412.189	389.75
412.247	359.9
412.306	412.71
412.364	394.34
412.423	403.52
412.481	417.3
412.54	403.52
412.598	382.86
412.657	364.49
412.715	364.49
412.774	403.52
412.832	364.49
412.891	373.68
412.949	355.31
413.007	382.86
413.066	346.12
413.124	318.57
413.182	336.94
413.241	355.31
413.299	332.35
413.357	359.9
413.416	355.31
413.474	378.27
413.532	451.74
413.59	357.6
413.649	412.71
413.707	355.31
413.765	486.18
413.823	371.38
413.881	396.64
413.94	373.68
413.998	396.64
414.056	387.45
414.114	398.93
414.172	353.01
414.23	350.72
414.288	307.09
414.347	353.01
414.405	261.17
414.463	362.2
414.521	325.46
414.579	412.71
414.637	339.24
414.695	353.01
414.753	325.46
414.811	362.2
414.869	350.72
414.927	309.39
414.985	348.42
415.043	334.64
415.101	394.34
415.158	330.05
415.216	359.9
415.274	460.92
415.332	371.38
415.39	382.86
415.448	387.45
415.506	380.56
415.563	380.56
415.621	362.2
415.679	396.64
415.737	362.2
415.795	343.83
415.852	366.79
415.91	339.24
415.968	380.56
416.026	311.68
416.083	339.24
416.141	359.9
416.199	355.31
416.256	348.42
416.314	387.45
416.372	359.9
416.429	389.75
416.487	369.08
416.544	373.68
416.602	394.34
416.66	431.08
416.717	398.93
416.775	472.4
416.832	327.76
416.89	332.35
416.947	424.19
417.005	362.2
417.062	334.64
417.12	428.78
417.177	385.16
417.235	353.01
417.292	334.64
417.35	343.83
417.407	378.27
417.464	332.35
417.522	316.28
417.579	371.38
417.637	320.87
417.694	412.71
417.751	417.3
417.809	375.97
417.866	421.89
417.923	336.94
417.981	382.86
418.038	293.32
418.095	286.43
418.152	350.72
418.21	396.64
418.267	447.15
418.324	405.82
418.381	348.42
418.438	357.6
418.496	353.01
418.553	318.57
418.61	348.42
418.667	341.53
418.724	405.82
418.781	371.38
418.838	387.45
418.895	364.49
418.952	348.42
419.01	380.56
419.067	334.64
419.124	325.46
419.181	355.31
419.238	415
419.295	343.83
419.352	385.16
419.409	394.34
419.466	410.41
419.523	357.6
419.579	316.28
419.636	336.94
419.693	341.53
419.75	369.08
419.807	378.27
419.864	288.72
419.921	396.64
419.978	348.42
420.034	431.08
420.091	389.75
420.148	403.52
420.205	431.08
420.262	442.56
420.318	474.7
420.375	357.6
420.432	410.41
420.489	378.27
420.545	325.46
420.602	387.45
420.659	355.31
420.715	392.04
420.772	362.2
420.829	339.24
420.885	307.09
420.942	346.12
420.999	350.72
421.055	366.79
421.112	350.72
421.168	325.46
421.225	456.33
421.282	431.08
421.338	369.08
421.395	371.38
421.451	380.56
421.508	387.45
421.564	405.82
421.621	371.38
421.677	385.16
421.734	348.42
421.79	403.52
421.846	357.6
421.903	357.6
421.959	327.76
422.016	323.16
422.072	359.9
422.128	318.57
422.185	336.94
422.241	382.86
422.297	357.6
422.354	348.42
422.41	369.08
422.466	350.72
422.523	336.94
422.579	332.35
422.635	309.39
422.691	339.24
422.748	380.56
422.804	369.08
422.86	353.01
422.916	336.94
422.972	373.68
423.029	366.79
423.085	325.46
423.141	362.2
423.197	451.74
423.253	373.68
423.309	392.04
423.365	362.2
423.421	421.89
423.477	421.89
423.533	387.45
423.589	415
423.645	394.34
423.701	364.49
423.757	378.27
423.813	417.3
423.869	357.6
423.925	396.64
423.981	387.45
424.037	330.05
424.093	394.34
424.149	447.15
424.205	366.79
424.261	394.34
424.317	346.12
424.373	300.2
424.428	419.6
424.484	447.15
424.54	346.12
424.596	369.08
424.652	350.72
424.708	378.27
424.763	378.27
424.819	392.04
424.875	371.38
424.931	375.97
424.986	380.56
425.042	357.6
425.098	359.9
425.153	362.2
425.209	369.08
425.265	472.4
425.32	346.12
425.376	320.87
425.432	371.38
425.487	398.93
425.543	325.46
425.598	369.08
425.654	332.35
425.709	334.64
425.765	334.64
425.82	431.08
425.876	366.79
425.932	366.79
425.987	371.38
426.042	366.79
426.098	442.56
426.153	419.6
426.209	419.6
426.264	375.97
426.32	401.23
426.375	380.56
426.43	336.94
426.486	405.82
426.541	410.41
426.597	373.68
426.652	353.01
426.707	336.94
426.763	375.97
426.818	433.37
426.873	378.27
426.928	389.75
426.984	369.08
427.039	410.41
427.094	385.16
427.149	357.6
427.205	385.16
427.26	353.01
427.315	392.04
427.37	465.52
427.425	415
427.48	382.86
427.536	343.83
427.591	364.49
427.646	387.45
427.701	440.26
427.756	373.68
427.811	362.2
427.866	369.08
427.921	408.12
427.976	387.45
428.031	359.9
428.086	311.68
428.141	348.42
428.196	353.01
428.251	348.42
428.306	366.79
428.361	410.41
428.416	323.16
428.471	403.52
428.526	369.08
428.581	332.35
428.636	332.35
428.691	389.75
428.745	355.31
428.8	385.16
428.855	320.87
428.91	394.34
428.965	389.75
429.02	378.27
429.074	382.86
429.129	392.04
429.184	323.16
429.239	408.12
429.293	348.42
429.348	346.12
429.403	332.35
429.457	371.38
429.512	389.75
429.567	392.04
429.621	392.04
429.676	343.83
429.731	339.24
429.785	380.56
429.84	355.31
429.895	350.72
429.949	394.34
430.004	382.86
430.058	375.97
430.113	387.45
430.167	385.16
430.222	364.49
430.276	359.9
430.331	327.76
430.385	371.38
430.44	309.39
430.494	359.9
430.549	348.42
430.603	387.45
430.657	394.34
430.712	401.23
430.766	375.97
430.821	373.68
430.875	362.2
430.929	405.82
430.984	364.49
431.038	465.52
431.092	346.12
431.147	366.79
431.201	444.85
431.255	346.12
431.309	428.78
431.364	341.53
431.418	350.72
431.472	353.01
431.526	323.16
431.581	355.31
431.635	403.52
431.689	330.05
431.743	366.79
431.797	421.89
431.851	355.31
431.906	350.72
431.96	392.04
432.014	323.16
432.068	355.31
432.122	392.04
432.176	325.46
432.23	355.31
432.284	348.42
432.338	415
432.392	355.31
432.446	343.83
432.5	359.9
432.554	332.35
432.608	394.34
432.662	327.76
432.716	380.56
432.77	320.87
432.824	339.24
432.878	327.76
432.931	323.16
432.985	334.64
433.039	359.9
433.093	382.86
433.147	369.08
433.201	366.79
433.254	421.89
433.308	499.96
433.362	369.08
433.416	389.75
433.47	405.82
433.523	323.16
433.577	353.01
433.631	348.42
433.684	343.83
433.738	375.97
433.792	330.05
433.846	330.05
433.899	332.35
433.953	362.2
434.006	350.72
434.06	327.76
434.114	336.94
434.167	336.94
434.221	336.94
