Data from FLMS155811_13-11-53-976.txt Node
Date: Wed Mar 25 13:11:53 MDT 2020
User: ECEn Student
Spectrometer: FLMS15581
Trigger mode: 0
Integration Time (sec): 1.000000E-1
Scans to average: 1
Electric dark correction enabled: true
Nonlinearity correction enabled: false
Boxcar width: 0
XAxis mode: Wavelengths
Number of Pixels in Spectrum: 2048
>>>>>Begin Spectral Data<<<<<
298.026	4.45
298.106	4.45
298.185	4.45
298.265	-91.98
298.344	-59.84
298.424	-135.61
298.503	-36.88
298.583	-57.54
298.662	-32.29
298.741	-11.62
298.821	-80.5
298.9	-59.84
298.98	-32.29
299.059	6.74
299.138	-18.51
299.217	20.52
299.297	43.48
299.376	75.62
299.455	100.88
299.535	128.43
299.614	89.4
299.693	110.06
299.772	116.95
299.852	165.17
299.931	133.03
300.01	206.5
300.089	206.5
300.168	220.27
300.247	275.38
300.327	240.94
300.406	172.06
300.485	309.82
300.564	298.34
300.643	339.67
300.722	277.67
300.801	316.71
300.88	325.89
300.959	355.74
301.038	413.14
301.117	323.59
301.196	341.96
301.275	374.11
301.354	380.99
301.433	394.77
301.512	374.11
301.591	364.92
301.67	362.63
301.749	360.33
301.828	362.63
301.907	371.81
301.985	380.99
302.064	337.37
302.143	300.63
302.222	309.82
302.301	291.45
302.38	337.37
302.458	380.99
302.537	385.59
302.616	362.63
302.695	417.73
302.773	325.89
302.852	346.55
302.931	344.26
303.01	364.92
303.088	364.92
303.167	332.78
303.246	312.11
303.324	296.04
303.403	325.89
303.481	353.44
303.56	351.15
303.639	367.22
303.717	319
303.796	323.59
303.874	341.96
303.953	305.23
304.032	321.3
304.11	339.67
304.189	286.86
304.267	300.63
304.346	314.41
304.424	293.75
304.502	335.07
304.581	296.04
304.659	330.48
304.738	351.15
304.816	376.4
304.895	319
304.973	438.39
305.051	362.63
305.13	282.27
305.208	371.81
305.286	321.3
305.365	316.71
305.443	305.23
305.521	367.22
305.6	323.59
305.678	408.55
305.756	296.04
305.834	442.99
305.913	348.85
305.991	254.71
306.069	351.15
306.147	305.23
306.225	305.23
306.304	330.48
306.382	348.85
306.46	383.29
306.538	332.78
306.616	300.63
306.694	380.99
306.772	325.89
306.85	330.48
306.929	314.41
307.007	316.71
307.085	378.7
307.163	309.82
307.241	376.4
307.319	328.19
307.397	447.58
307.475	351.15
307.553	348.85
307.631	353.44
307.709	344.26
307.786	312.11
307.864	378.7
307.942	307.52
308.02	397.07
308.098	314.41
308.176	344.26
308.254	378.7
308.332	254.71
308.409	406.25
308.487	346.55
308.565	392.47
308.643	355.74
308.721	348.85
308.798	332.78
308.876	344.26
308.954	344.26
309.032	344.26
309.109	385.59
309.187	314.41
309.265	300.63
309.342	360.33
309.42	355.74
309.498	367.22
309.575	328.19
309.653	312.11
309.731	378.7
309.808	284.56
309.886	376.4
309.963	358.03
310.041	270.79
310.119	328.19
310.196	344.26
310.274	376.4
310.351	316.71
310.429	355.74
310.506	335.07
310.584	341.96
310.661	335.07
310.738	355.74
310.816	335.07
310.893	355.74
310.971	323.59
311.048	415.43
311.126	335.07
311.203	364.92
311.28	289.15
311.358	346.55
311.435	378.7
311.512	355.74
311.59	321.3
311.667	387.88
311.744	353.44
311.821	309.82
311.899	362.63
311.976	353.44
312.053	378.7
312.13	351.15
312.208	298.34
312.285	374.11
312.362	369.51
312.439	341.96
312.516	346.55
312.593	406.25
312.671	325.89
312.748	355.74
312.825	351.15
312.902	353.44
312.979	346.55
313.056	351.15
313.133	362.63
313.21	240.94
313.287	420.03
313.364	348.85
313.441	341.96
313.518	346.55
313.595	383.29
313.672	358.03
313.749	371.81
313.826	401.66
313.903	413.14
313.98	408.55
314.057	385.59
314.134	346.55
314.211	312.11
314.287	330.48
314.364	410.84
314.441	449.87
314.518	321.3
314.595	385.59
314.672	321.3
314.748	385.59
314.825	413.14
314.902	335.07
314.979	390.18
315.055	344.26
315.132	376.4
315.209	449.87
315.286	383.29
315.362	351.15
315.439	360.33
315.516	367.22
315.592	339.67
315.669	422.32
315.746	401.66
315.822	346.55
315.899	380.99
315.975	385.59
316.052	348.85
316.128	394.77
316.205	394.77
316.282	355.74
316.358	330.48
316.435	367.22
316.511	330.48
316.588	307.52
316.664	335.07
316.741	353.44
316.817	417.73
316.893	353.44
316.97	406.25
317.046	323.59
317.123	397.07
317.199	364.92
317.275	332.78
317.352	341.96
317.428	383.29
317.504	337.37
317.581	325.89
317.657	355.74
317.733	319
317.81	380.99
317.886	358.03
317.962	383.29
318.038	367.22
318.115	376.4
318.191	355.74
318.267	298.34
318.343	408.55
318.419	408.55
318.496	358.03
318.572	403.95
318.648	364.92
318.724	319
318.8	364.92
318.876	390.18
318.952	339.67
319.028	403.95
319.105	376.4
319.181	399.36
319.257	410.84
319.333	385.59
319.409	385.59
319.485	339.67
319.561	300.63
319.637	275.38
319.713	298.34
319.789	376.4
319.865	385.59
319.94	371.81
320.016	380.99
320.092	360.33
320.168	344.26
320.244	325.89
320.32	360.33
320.396	420.03
320.472	383.29
320.547	378.7
320.623	337.37
320.699	364.92
320.775	380.99
320.851	380.99
320.926	337.37
321.002	394.77
321.078	399.36
321.154	374.11
321.229	355.74
321.305	413.14
321.381	399.36
321.456	346.55
321.532	376.4
321.608	284.56
321.683	335.07
321.759	397.07
321.835	394.77
321.91	403.95
321.986	358.03
322.061	387.88
322.137	369.51
322.212	385.59
322.288	385.59
322.364	431.51
322.439	300.63
322.515	378.7
322.59	403.95
322.666	426.91
322.741	422.32
322.816	358.03
322.892	337.37
322.967	344.26
323.043	360.33
323.118	339.67
323.193	376.4
323.269	380.99
323.344	332.78
323.42	360.33
323.495	348.85
323.57	408.55
323.646	406.25
323.721	442.99
323.796	387.88
323.871	367.22
323.947	360.33
324.022	397.07
324.097	364.92
324.172	360.33
324.248	358.03
324.323	351.15
324.398	351.15
324.473	367.22
324.548	433.8
324.623	445.28
324.699	360.33
324.774	383.29
324.849	316.71
324.924	309.82
324.999	323.59
325.074	433.8
325.149	335.07
325.224	383.29
325.299	394.77
325.374	351.15
325.449	383.29
325.524	369.51
325.599	403.95
325.674	413.14
325.749	383.29
325.824	413.14
325.899	378.7
325.974	371.81
326.049	367.22
326.124	376.4
326.199	385.59
326.273	401.66
326.348	406.25
326.423	353.44
326.498	394.77
326.573	371.81
326.648	316.71
326.722	355.74
326.797	351.15
326.872	371.81
326.947	351.15
327.021	392.47
327.096	348.85
327.171	369.51
327.245	360.33
327.32	374.11
327.395	380.99
327.47	367.22
327.544	378.7
327.619	332.78
327.693	376.4
327.768	406.25
327.843	380.99
327.917	355.74
327.992	332.78
328.066	362.63
328.141	383.29
328.215	392.47
328.29	385.59
328.364	420.03
328.439	401.66
328.513	385.59
328.588	436.1
328.662	344.26
328.737	417.73
328.811	321.3
328.886	353.44
328.96	346.55
329.035	364.92
329.109	387.88
329.183	445.28
329.258	383.29
329.332	339.67
329.406	358.03
329.481	429.21
329.555	309.82
329.629	459.06
329.704	348.85
329.778	385.59
329.852	436.1
329.926	417.73
330.001	312.11
330.075	403.95
330.149	422.32
330.223	351.15
330.297	360.33
330.372	335.07
330.446	371.81
330.52	403.95
330.594	397.07
330.668	346.55
330.742	410.84
330.816	369.51
330.89	376.4
330.964	378.7
331.038	325.89
331.113	394.77
331.187	355.74
331.261	413.14
331.335	364.92
331.409	410.84
331.483	353.44
331.557	371.81
331.63	330.48
331.704	325.89
331.778	344.26
331.852	406.25
331.926	369.51
332	353.44
332.074	420.03
332.148	369.51
332.222	401.66
332.295	397.07
332.369	410.84
332.443	367.22
332.517	346.55
332.591	436.1
332.665	429.21
332.738	302.93
332.812	399.36
332.886	371.81
332.959	447.58
333.033	358.03
333.107	390.18
333.181	406.25
333.254	429.21
333.328	431.51
333.402	431.51
333.475	387.88
333.549	355.74
333.622	367.22
333.696	399.36
333.77	385.59
333.843	424.62
333.917	371.81
333.99	417.73
334.064	420.03
334.137	344.26
334.211	341.96
334.284	429.21
334.358	438.39
334.431	367.22
334.505	387.88
334.578	337.37
334.652	371.81
334.725	330.48
334.799	371.81
334.872	392.47
334.945	380.99
335.019	378.7
335.092	353.44
335.165	392.47
335.239	431.51
335.312	355.74
335.385	328.19
335.459	369.51
335.532	394.77
335.605	399.36
335.678	445.28
335.752	440.69
335.825	337.37
335.898	440.69
335.971	387.88
336.045	424.62
336.118	417.73
336.191	403.95
336.264	390.18
336.337	415.43
336.41	369.51
336.483	378.7
336.557	426.91
336.63	328.19
336.703	341.96
336.776	351.15
336.849	378.7
336.922	479.72
336.995	468.24
337.068	406.25
337.141	383.29
337.214	369.51
337.287	429.21
337.36	394.77
337.433	378.7
337.506	454.47
337.579	369.51
337.652	445.28
337.725	380.99
337.797	387.88
337.87	420.03
337.943	346.55
338.016	332.78
338.089	337.37
338.162	383.29
338.235	371.81
338.307	358.03
338.38	346.55
338.453	362.63
338.526	385.59
338.598	415.43
338.671	367.22
338.744	390.18
338.817	397.07
338.889	436.1
338.962	438.39
339.035	394.77
339.107	397.07
339.18	378.7
339.253	374.11
339.325	403.95
339.398	413.14
339.47	387.88
339.543	360.33
339.616	376.4
339.688	376.4
339.761	367.22
339.833	429.21
339.906	401.66
339.978	385.59
340.051	422.32
340.123	330.48
340.196	426.91
340.268	408.55
340.341	426.91
340.413	394.77
340.485	390.18
340.558	323.59
340.63	332.78
340.703	374.11
340.775	362.63
340.847	429.21
340.92	424.62
340.992	341.96
341.064	307.52
341.137	424.62
341.209	358.03
341.281	415.43
341.354	397.07
341.426	364.92
341.498	355.74
341.57	312.11
341.643	364.92
341.715	374.11
341.787	362.63
341.859	408.55
341.931	371.81
342.003	408.55
342.076	367.22
342.148	383.29
342.22	387.88
342.292	424.62
342.364	346.55
342.436	380.99
342.508	380.99
342.58	401.66
342.652	406.25
342.724	431.51
342.796	442.99
342.868	383.29
342.94	385.59
343.012	401.66
343.084	344.26
343.156	323.59
343.228	367.22
343.3	403.95
343.372	362.63
343.444	332.78
343.516	378.7
343.588	394.77
343.66	454.47
343.731	433.8
343.803	355.74
343.875	387.88
343.947	367.22
344.019	374.11
344.09	364.92
344.162	348.85
344.234	374.11
344.306	362.63
344.377	371.81
344.449	445.28
344.521	376.4
344.593	417.73
344.664	397.07
344.736	360.33
344.808	447.58
344.879	335.07
344.951	374.11
345.023	351.15
345.094	360.33
345.166	353.44
345.237	337.37
345.309	413.14
345.38	401.66
345.452	374.11
345.524	360.33
345.595	394.77
345.667	307.52
345.738	367.22
345.81	413.14
345.881	424.62
345.953	408.55
346.024	351.15
346.095	426.91
346.167	403.95
346.238	401.66
346.31	369.51
346.381	351.15
346.452	346.55
346.524	380.99
346.595	390.18
346.666	410.84
346.738	369.51
346.809	390.18
346.88	406.25
346.952	424.62
347.023	459.06
347.094	286.86
347.165	328.19
347.237	387.88
347.308	369.51
347.379	358.03
347.45	401.66
347.521	390.18
347.593	369.51
347.664	401.66
347.735	371.81
347.806	417.73
347.877	410.84
347.948	378.7
348.019	422.32
348.09	410.84
348.161	410.84
348.233	358.03
348.304	438.39
348.375	348.85
348.446	417.73
348.517	449.87
348.588	436.1
348.659	385.59
348.73	371.81
348.801	360.33
348.871	449.87
348.942	447.58
349.013	380.99
349.084	346.55
349.155	378.7
349.226	449.87
349.297	358.03
349.368	410.84
349.439	422.32
349.509	438.39
349.58	445.28
349.651	449.87
349.722	408.55
349.793	376.4
349.863	403.95
349.934	420.03
350.005	472.83
350.076	438.39
350.146	436.1
350.217	380.99
350.288	426.91
350.358	346.55
350.429	486.61
350.5	323.59
350.57	493.5
350.641	374.11
350.711	362.63
350.782	362.63
350.853	374.11
350.923	380.99
350.994	403.95
351.064	392.47
351.135	479.72
351.205	394.77
351.276	387.88
351.346	390.18
351.417	431.51
351.487	452.17
351.558	426.91
351.628	438.39
351.699	442.99
351.769	413.14
351.84	341.96
351.91	406.25
351.98	482.02
352.051	392.47
352.121	440.69
352.191	410.84
352.262	429.21
352.332	369.51
352.402	440.69
352.473	403.95
352.543	362.63
352.613	403.95
352.683	438.39
352.754	339.67
352.824	390.18
352.894	410.84
352.964	385.59
353.035	449.87
353.105	422.32
353.175	401.66
353.245	413.14
353.315	426.91
353.385	417.73
353.455	394.77
353.526	491.2
353.596	371.81
353.666	442.99
353.736	452.17
353.806	431.51
353.876	534.83
353.946	484.31
354.016	456.76
354.086	502.68
354.156	449.87
354.226	429.21
354.296	445.28
354.366	454.47
354.436	514.16
354.506	459.06
354.576	537.12
354.645	548.6
354.715	521.05
354.785	550.9
354.855	518.75
354.925	534.83
354.995	495.79
355.065	541.71
355.134	596.82
355.204	562.38
355.274	475.13
355.344	472.83
355.414	550.9
355.483	601.41
355.553	686.36
355.623	601.41
355.693	603.71
355.762	606
355.832	654.22
355.902	610.6
355.971	640.44
356.041	674.88
356.111	688.66
356.18	769.02
356.25	723.1
356.319	665.7
356.389	791.98
356.459	775.91
356.528	771.32
356.598	785.09
356.667	819.53
356.737	791.98
356.806	787.39
356.876	803.46
356.945	911.37
357.015	994.03
357.084	929.74
357.154	941.22
357.223	966.48
357.292	971.07
357.362	943.52
357.431	957.29
357.501	1072.09
357.57	1081.28
357.639	1124.9
357.709	1147.86
357.778	1140.97
357.847	1225.93
357.917	1235.11
357.986	1315.47
358.055	1271.85
358.124	1310.88
358.194	1301.69
358.263	1352.21
358.332	1324.65
358.401	1467.01
358.471	1496.85
358.54	1602.47
358.609	1669.06
358.678	1714.98
358.747	1662.17
358.816	1776.97
358.886	1857.33
358.955	1855.03
359.024	1873.4
359.093	1956.06
359.162	2045.6
359.231	2027.23
359.3	2061.67
359.369	2231.58
359.438	2419.85
359.507	2415.26
359.576	2562.2
359.645	2647.16
359.714	2640.27
359.783	2670.12
359.852	2879.05
359.921	2929.56
359.99	3069.62
360.059	3202.79
360.128	3241.82
360.197	3377.29
360.266	3430.09
360.334	3602.3
360.403	3733.17
360.472	3985.73
360.541	4109.71
360.61	4281.91
360.679	4231.4
360.747	4708.97
360.816	4789.33
360.885	4938.57
360.954	5154.4
361.022	5367.93
361.091	5445.99
361.16	5654.93
361.228	5909.79
361.297	6325.36
361.366	6509.04
361.434	6626.14
361.503	7048.61
361.572	7174.89
361.64	7438.93
361.709	7801.7
361.778	8056.55
361.846	8276.97
361.915	8497.39
361.983	9032.36
362.052	9475.49
362.12	9457.12
362.189	9971.43
362.257	10168.88
362.326	10449
362.394	10754.37
362.463	11144.69
362.531	11094.17
362.6	11753.13
362.668	11824.31
362.737	11975.84
362.805	12643.98
362.873	12508.52
362.942	13050.37
363.01	13548.61
363.079	13560.09
363.147	14542.78
363.215	14382.06
363.284	15015.76
363.352	15357.86
363.42	15463.48
363.488	15913.5
363.557	16407.14
363.625	16673.48
363.693	16891.6
363.761	17288.81
363.83	17587.29
363.898	18099.3
363.966	18328.9
364.034	18778.92
364.102	19137.1
364.171	19681.25
364.239	20094.53
364.307	20755.78
364.375	21375.71
364.443	21665
364.511	22532.89
364.579	23083.94
364.647	24112.55
364.715	24679.66
364.783	25361.58
364.851	25970.02
364.919	26346.57
364.987	27402.73
365.055	28183.37
365.123	29189.03
365.191	29659.71
365.259	30298
365.327	30587.3
365.395	31404.67
365.463	31044.2
365.531	32013.12
365.599	32272.57
365.667	33124.39
365.735	33831.56
365.802	34171.37
365.87	34646.64
365.938	35496.16
366.006	35822.2
366.074	36166.6
366.142	36593.66
366.209	36917.39
366.277	37525.84
366.345	37867.94
366.413	38237.6
366.48	38777.16
366.548	39472.85
366.616	39449.89
366.683	39952.72
366.751	40554.27
366.819	41086.95
366.886	40896.38
366.954	40797.65
367.022	40981.33
367.089	41295.88
367.157	41543.85
367.224	41612.73
367.292	41876.77
367.36	41872.18
367.427	42877.83
367.495	42781.4
367.562	43178.61
367.63	43435.76
367.697	44030.43
367.765	44092.42
367.832	44595.25
367.9	44425.34
367.967	44553.92
368.034	45040.68
368.102	45056.75
368.169	46342.51
368.237	46211.64
368.304	46491.75
368.371	46280.52
368.439	46640.99
368.506	47366.53
368.573	47329.8
368.641	47497.41
368.708	47667.31
368.775	47639.76
368.843	48507.65
368.91	48461.73
368.977	48633.93
369.044	49168.9
369.112	48548.98
369.179	49667.13
369.246	49488.05
369.313	49752.09
369.38	49722.24
369.448	50284.76
369.515	50066.64
369.582	50064.34
369.649	50349.05
369.716	50590.13
369.783	50900.09
369.85	50991.93
369.917	50835.8
369.984	51106.73
370.052	51520.01
370.119	51432.77
370.186	51777.17
370.253	51786.35
370.32	51595.78
370.387	51683.03
370.454	51905.74
370.521	51834.57
370.587	51288.12
370.654	51389.14
370.721	51396.03
370.788	51219.24
370.855	51265.16
370.922	50849.58
370.989	51097.55
371.056	50514.36
371.123	50117.15
371.189	49860
371.256	49455.9
371.323	49143.64
371.39	48590.31
371.457	47596.13
371.523	47017.54
371.59	45809.84
371.657	45506.77
371.724	44744.49
371.79	43001.82
371.857	42441.59
371.924	41034.14
371.991	39454.48
372.057	38003.41
372.124	36820.96
372.191	35406.62
372.257	33709.87
372.324	32093.48
372.39	30238.3
372.457	28771.15
372.524	27416.51
372.59	25602.66
372.657	23977.08
372.723	22447.94
372.79	20948.65
372.856	19265.67
372.923	18491.92
372.989	17004.1
373.056	15830.84
373.122	14469.31
373.189	13697.85
373.255	12657.76
373.322	11941.4
373.388	10736
373.454	9948.47
373.521	9232.11
373.587	8653.52
373.654	7955.53
373.72	7287.39
373.786	6757.01
373.853	6169.23
373.919	5889.12
373.985	5214.09
374.052	4952.35
374.118	4463.3
374.184	4353.09
374.25	4020.17
374.317	3746.94
374.383	3368.1
374.449	3246.41
374.515	2993.85
374.581	2755.07
374.648	2617.31
374.714	2447.4
374.78	2275.2
374.846	2171.88
374.912	1992.79
374.978	2020.34
375.044	1866.51
375.11	1827.48
375.177	1659.87
375.243	1584.1
375.309	1446.34
375.375	1365.98
375.441	1349.91
375.507	1299.4
375.573	1242
375.639	1154.75
375.705	1189.19
375.771	1138.68
375.837	1026.17
375.903	966.48
375.968	964.18
376.034	925.15
376.1	1033.06
376.166	886.12
376.232	925.15
376.298	785.09
376.364	785.09
376.43	778.2
376.495	824.12
376.561	771.32
376.627	741.47
376.693	769.02
376.759	729.99
376.824	743.76
376.89	647.33
376.956	697.84
377.022	638.15
377.087	631.26
377.153	633.56
377.219	553.19
377.284	606
377.35	585.34
377.416	578.45
377.481	514.16
377.547	493.5
377.613	500.39
377.678	569.27
377.744	606
377.809	578.45
377.875	569.27
377.94	498.09
378.006	454.47
378.071	532.53
378.137	495.79
378.202	509.57
378.268	502.68
378.333	415.43
378.399	518.75
378.464	463.65
378.53	488.91
378.595	477.43
378.661	511.87
378.726	475.13
378.791	420.03
378.857	452.17
378.922	486.61
378.987	440.69
379.053	417.73
379.118	468.24
379.183	447.58
379.249	509.57
379.314	477.43
379.379	470.54
379.444	463.65
379.51	477.43
379.575	406.25
379.64	459.06
379.705	465.95
379.771	433.8
379.836	440.69
379.901	516.46
379.966	385.59
380.031	454.47
380.096	461.35
380.161	399.36
380.227	438.39
380.292	436.1
380.357	484.31
380.422	429.21
380.487	401.66
380.552	440.69
380.617	429.21
380.682	459.06
380.747	367.22
380.812	417.73
380.877	440.69
380.942	403.95
381.007	449.87
381.072	454.47
381.137	346.55
381.202	385.59
381.266	449.87
381.331	445.28
381.396	387.88
381.461	491.2
381.526	422.32
381.591	426.91
381.656	470.54
381.72	410.84
381.785	424.62
381.85	376.4
381.915	387.88
381.979	383.29
382.044	394.77
382.109	374.11
382.174	394.77
382.238	433.8
382.303	394.77
382.368	449.87
382.432	390.18
382.497	417.73
382.562	420.03
382.626	403.95
382.691	371.81
382.756	433.8
382.82	415.43
382.885	417.73
382.949	371.81
383.014	392.47
383.078	392.47
383.143	447.58
383.208	420.03
383.272	406.25
383.337	399.36
383.401	362.63
383.465	339.67
383.53	390.18
383.594	374.11
383.659	378.7
383.723	447.58
383.788	431.51
383.852	438.39
383.916	454.47
383.981	383.29
384.045	371.81
384.109	413.14
384.174	335.07
384.238	378.7
384.302	413.14
384.367	374.11
384.431	362.63
384.495	397.07
384.56	341.96
384.624	422.32
384.688	426.91
384.752	397.07
384.816	378.7
384.881	433.8
384.945	468.24
385.009	415.43
385.073	433.8
385.137	433.8
385.201	374.11
385.265	426.91
385.33	397.07
385.394	410.84
385.458	378.7
385.522	380.99
385.586	369.51
385.65	420.03
385.714	385.59
385.778	360.33
385.842	383.29
385.906	378.7
385.97	454.47
386.034	426.91
386.098	456.76
386.162	385.59
386.226	397.07
386.29	392.47
386.354	461.35
386.417	348.85
386.481	367.22
386.545	424.62
386.609	335.07
386.673	374.11
386.737	367.22
386.8	385.59
386.864	447.58
386.928	319
386.992	344.26
387.056	344.26
387.119	344.26
387.183	431.51
387.247	376.4
387.31	378.7
387.374	328.19
387.438	323.59
387.502	380.99
387.565	371.81
387.629	383.29
387.692	339.67
387.756	360.33
387.82	397.07
387.883	337.37
387.947	403.95
388.01	426.91
388.074	392.47
388.138	323.59
388.201	399.36
388.265	394.77
388.328	337.37
388.392	362.63
388.455	296.04
388.519	406.25
388.582	417.73
388.645	390.18
388.709	383.29
388.772	438.39
388.836	360.33
388.899	383.29
388.962	369.51
389.026	335.07
389.089	325.89
389.153	410.84
389.216	344.26
389.279	383.29
389.343	378.7
389.406	438.39
389.469	440.69
389.532	378.7
389.596	422.32
389.659	420.03
389.722	399.36
389.785	376.4
389.848	424.62
389.912	316.71
389.975	431.51
390.038	383.29
390.101	408.55
390.164	387.88
390.227	456.76
390.291	431.51
390.354	436.1
390.417	383.29
390.48	360.33
390.543	426.91
390.606	440.69
390.669	341.96
390.732	353.44
390.795	360.33
390.858	392.47
390.921	394.77
390.984	364.92
391.047	364.92
391.11	364.92
391.173	413.14
391.236	436.1
391.299	403.95
391.362	403.95
391.424	463.65
391.487	394.77
391.55	360.33
391.613	367.22
391.676	371.81
391.739	410.84
391.802	431.51
391.864	323.59
391.927	367.22
391.99	374.11
392.053	367.22
392.115	321.3
392.178	351.15
392.241	436.1
392.304	316.71
392.366	399.36
392.429	376.4
392.492	364.92
392.554	337.37
392.617	369.51
392.68	328.19
392.742	348.85
392.805	385.59
392.867	394.77
392.93	406.25
392.992	399.36
393.055	408.55
393.118	408.55
393.18	385.59
393.243	410.84
393.305	392.47
393.368	355.74
393.43	323.59
393.493	348.85
393.555	371.81
393.618	335.07
393.68	335.07
393.742	337.37
393.805	445.28
393.867	387.88
393.93	397.07
393.992	406.25
394.054	422.32
394.117	346.55
394.179	387.88
394.241	346.55
394.304	305.23
394.366	390.18
394.428	325.89
394.49	328.19
394.553	316.71
394.615	332.78
394.677	406.25
394.739	364.92
394.802	380.99
394.864	364.92
394.926	406.25
394.988	337.37
395.05	335.07
395.112	387.88
395.174	403.95
395.237	355.74
395.299	417.73
395.361	374.11
395.423	360.33
395.485	408.55
395.547	403.95
395.609	309.82
395.671	335.07
395.733	429.21
395.795	378.7
395.857	380.99
395.919	376.4
395.981	392.47
396.043	371.81
396.105	332.78
396.167	309.82
396.229	325.89
396.291	417.73
396.352	369.51
396.414	415.43
396.476	403.95
396.538	392.47
396.6	387.88
396.662	401.66
396.724	346.55
396.785	371.81
396.847	302.93
396.909	374.11
396.971	344.26
397.032	339.67
397.094	392.47
397.156	353.44
397.218	385.59
397.279	346.55
397.341	353.44
397.403	312.11
397.464	378.7
397.526	348.85
397.588	385.59
397.649	374.11
397.711	371.81
397.772	337.37
397.834	344.26
397.896	353.44
397.957	339.67
398.019	383.29
398.08	367.22
398.142	401.66
398.203	355.74
398.265	403.95
398.326	348.85
398.388	358.03
398.449	293.75
398.511	358.03
398.572	376.4
398.633	385.59
398.695	403.95
398.756	367.22
398.818	362.63
398.879	380.99
398.94	358.03
399.002	390.18
399.063	408.55
399.124	374.11
399.186	341.96
399.247	358.03
399.308	392.47
399.369	341.96
399.431	316.71
399.492	374.11
399.553	358.03
399.614	394.77
399.676	383.29
399.737	364.92
399.798	358.03
399.859	367.22
399.92	440.69
399.981	339.67
400.042	348.85
400.104	367.22
400.165	362.63
400.226	371.81
400.287	376.4
400.348	358.03
400.409	339.67
400.47	364.92
400.531	319
400.592	371.81
400.653	376.4
400.714	284.56
400.775	325.89
400.836	339.67
400.897	323.59
400.958	390.18
401.019	358.03
401.08	364.92
401.141	358.03
401.201	364.92
401.262	401.66
401.323	330.48
401.384	385.59
401.445	376.4
401.506	371.81
401.567	371.81
401.627	339.67
401.688	371.81
401.749	399.36
401.81	337.37
401.87	374.11
401.931	380.99
401.992	328.19
402.053	364.92
402.113	385.59
402.174	394.77
402.235	314.41
402.295	284.56
402.356	330.48
402.417	390.18
402.477	417.73
402.538	355.74
402.598	403.95
402.659	348.85
402.719	374.11
402.78	374.11
402.841	344.26
402.901	362.63
402.962	358.03
403.022	348.85
403.083	367.22
403.143	383.29
403.204	332.78
403.264	330.48
403.324	394.77
403.385	376.4
403.445	371.81
403.506	392.47
403.566	380.99
403.627	394.77
403.687	385.59
403.747	346.55
403.808	380.99
403.868	364.92
403.928	399.36
403.989	298.34
404.049	358.03
404.109	346.55
404.169	371.81
404.23	387.88
404.29	355.74
404.35	353.44
404.41	353.44
404.47	355.74
404.531	387.88
404.591	422.32
404.651	392.47
404.711	397.07
404.771	325.89
404.831	374.11
404.892	371.81
404.952	380.99
405.012	374.11
405.072	341.96
405.132	390.18
405.192	374.11
405.252	351.15
405.312	367.22
405.372	337.37
405.432	351.15
405.492	367.22
405.552	387.88
405.612	394.77
405.672	403.95
405.732	346.55
405.792	422.32
405.852	374.11
405.912	335.07
405.971	321.3
406.031	367.22
406.091	362.63
406.151	403.95
406.211	328.19
406.271	358.03
406.33	403.95
406.39	374.11
406.45	376.4
406.51	376.4
406.57	358.03
406.629	380.99
406.689	394.77
406.749	358.03
406.808	413.14
406.868	316.71
406.928	332.78
406.988	358.03
407.047	335.07
407.107	394.77
407.166	337.37
407.226	415.43
407.286	394.77
407.345	392.47
407.405	358.03
407.464	394.77
407.524	383.29
407.584	344.26
407.643	385.59
407.703	385.59
407.762	385.59
407.822	339.67
407.881	346.55
407.941	362.63
408	330.48
408.059	348.85
408.119	298.34
408.178	344.26
408.238	351.15
408.297	348.85
408.356	330.48
408.416	296.04
408.475	420.03
408.535	346.55
408.594	367.22
408.653	376.4
408.712	369.51
408.772	302.93
408.831	413.14
408.89	390.18
408.95	321.3
409.009	383.29
409.068	371.81
409.127	275.38
409.186	300.63
409.246	436.1
409.305	413.14
409.364	309.82
409.423	358.03
409.482	362.63
409.541	378.7
409.6	399.36
409.66	390.18
409.719	413.14
409.778	410.84
409.837	392.47
409.896	360.33
409.955	300.63
410.014	380.99
410.073	376.4
410.132	321.3
410.191	328.19
410.25	367.22
410.309	346.55
410.368	403.95
410.427	367.22
410.486	348.85
410.545	413.14
410.603	321.3
410.662	422.32
410.721	298.34
410.78	362.63
410.839	380.99
410.898	390.18
410.957	367.22
411.015	360.33
411.074	332.78
411.133	277.67
411.192	332.78
411.25	312.11
411.309	277.67
411.368	369.51
411.427	300.63
411.485	351.15
411.544	413.14
411.603	383.29
411.661	337.37
411.72	339.67
411.779	447.58
411.837	358.03
411.896	348.85
411.955	358.03
412.013	380.99
412.072	362.63
412.13	390.18
412.189	358.03
412.247	353.44
412.306	383.29
412.364	319
412.423	406.25
412.481	385.59
412.54	369.51
412.598	330.48
412.657	358.03
412.715	420.03
412.774	321.3
412.832	323.59
412.891	376.4
412.949	353.44
413.007	376.4
413.066	293.75
413.124	374.11
413.182	385.59
413.241	420.03
413.299	417.73
413.357	371.81
413.416	371.81
413.474	408.55
413.532	284.56
413.59	305.23
413.649	429.21
413.707	410.84
413.765	364.92
413.823	417.73
413.881	424.62
413.94	358.03
413.998	353.44
414.056	403.95
414.114	323.59
414.172	300.63
414.23	353.44
414.288	332.78
414.347	321.3
414.405	296.04
414.463	339.67
414.521	346.55
414.579	360.33
414.637	353.44
414.695	360.33
414.753	413.14
414.811	380.99
414.869	392.47
414.927	387.88
414.985	346.55
415.043	325.89
415.101	332.78
415.158	371.81
415.216	355.74
415.274	376.4
415.332	305.23
415.39	341.96
415.448	378.7
415.506	371.81
415.563	394.77
415.621	410.84
415.679	364.92
415.737	351.15
415.795	410.84
415.852	385.59
415.91	380.99
415.968	371.81
416.026	351.15
416.083	330.48
416.141	399.36
416.199	424.62
416.256	387.88
416.314	351.15
416.372	394.77
416.429	369.51
416.487	369.51
416.544	323.59
416.602	420.03
416.66	335.07
416.717	360.33
416.775	346.55
416.832	369.51
416.89	371.81
416.947	341.96
417.005	433.8
417.062	367.22
417.12	374.11
417.177	392.47
417.235	296.04
417.292	314.41
417.35	344.26
417.407	358.03
417.464	413.14
417.522	369.51
417.579	319
417.637	351.15
417.694	376.4
417.751	358.03
417.809	351.15
417.866	307.52
417.923	392.47
417.981	330.48
418.038	348.85
418.095	364.92
418.152	420.03
418.21	316.71
418.267	302.93
418.324	316.71
418.381	353.44
418.438	371.81
418.496	351.15
418.553	335.07
418.61	305.23
418.667	387.88
418.724	397.07
418.781	392.47
418.838	392.47
418.895	351.15
418.952	378.7
419.01	383.29
419.067	376.4
419.124	316.71
419.181	420.03
419.238	369.51
419.295	371.81
419.352	302.93
419.409	383.29
419.466	371.81
419.523	346.55
419.579	323.59
419.636	348.85
419.693	399.36
419.75	300.63
419.807	367.22
419.864	254.71
419.921	413.14
419.978	346.55
420.034	344.26
420.091	380.99
420.148	376.4
420.205	362.63
420.262	339.67
420.318	424.62
420.375	337.37
420.432	367.22
420.489	341.96
420.545	367.22
420.602	337.37
420.659	316.71
420.715	348.85
420.772	392.47
420.829	408.55
420.885	298.34
420.942	341.96
420.999	289.15
421.055	403.95
421.112	341.96
421.168	319
421.225	346.55
421.282	323.59
421.338	380.99
421.395	383.29
421.451	367.22
421.508	344.26
421.564	369.51
421.621	378.7
421.677	376.4
421.734	376.4
421.79	383.29
421.846	319
421.903	374.11
421.959	339.67
422.016	284.56
422.072	330.48
422.128	380.99
422.185	335.07
422.241	339.67
422.297	371.81
422.354	376.4
422.41	387.88
422.466	319
422.523	348.85
422.579	378.7
422.635	358.03
422.691	378.7
422.748	330.48
422.804	362.63
422.86	387.88
422.916	371.81
422.972	378.7
423.029	335.07
423.085	410.84
423.141	337.37
423.197	337.37
423.253	447.58
423.309	328.19
423.365	408.55
423.421	279.97
423.477	348.85
423.533	367.22
423.589	390.18
423.645	378.7
423.701	387.88
423.757	339.67
423.813	321.3
423.869	337.37
423.925	305.23
423.981	360.33
424.037	335.07
424.093	358.03
424.149	362.63
424.205	364.92
424.261	309.82
424.317	378.7
424.373	344.26
424.428	378.7
424.484	321.3
424.54	376.4
424.596	369.51
424.652	341.96
424.708	337.37
424.763	316.71
424.819	348.85
424.875	360.33
424.931	387.88
424.986	399.36
425.042	378.7
425.098	344.26
425.153	397.07
425.209	387.88
425.265	305.23
425.32	360.33
425.376	374.11
425.432	332.78
425.487	374.11
425.543	364.92
425.598	360.33
425.654	362.63
425.709	323.59
425.765	325.89
425.82	348.85
425.876	296.04
425.932	337.37
425.987	383.29
426.042	323.59
426.098	417.73
426.153	300.63
426.209	353.44
426.264	358.03
426.32	355.74
426.375	364.92
426.43	394.77
426.486	364.92
426.541	385.59
426.597	371.81
426.652	339.67
426.707	307.52
426.763	376.4
426.818	358.03
426.873	397.07
426.928	344.26
426.984	319
427.039	408.55
427.094	348.85
427.149	305.23
427.205	291.45
427.26	385.59
427.315	351.15
427.37	394.77
427.425	319
427.48	289.15
427.536	348.85
427.591	332.78
427.646	385.59
427.701	312.11
427.756	300.63
427.811	335.07
427.866	364.92
427.921	335.07
427.976	335.07
428.031	321.3
428.086	392.47
428.141	335.07
428.196	374.11
428.251	328.19
428.306	380.99
428.361	390.18
428.416	314.41
428.471	394.77
428.526	312.11
428.581	355.74
428.636	374.11
428.691	383.29
428.745	348.85
428.8	380.99
428.855	353.44
428.91	302.93
428.965	353.44
429.02	399.36
429.074	319
429.129	369.51
429.184	302.93
429.239	346.55
429.293	424.62
429.348	330.48
429.403	291.45
429.457	367.22
429.512	266.19
429.567	369.51
429.621	335.07
429.676	353.44
429.731	371.81
429.785	307.52
429.84	328.19
429.895	374.11
429.949	309.82
430.004	323.59
430.058	397.07
430.113	339.67
430.167	385.59
430.222	312.11
430.276	383.29
430.331	410.84
430.385	325.89
430.44	330.48
430.494	348.85
430.549	339.67
430.603	339.67
430.657	332.78
430.712	367.22
430.766	325.89
430.821	390.18
430.875	335.07
430.929	337.37
430.984	394.77
431.038	341.96
431.092	378.7
431.147	351.15
431.201	362.63
431.255	380.99
431.309	282.27
431.364	369.51
431.418	351.15
431.472	392.47
431.526	319
431.581	380.99
431.635	383.29
431.689	364.92
431.743	335.07
431.797	385.59
431.851	323.59
431.906	321.3
431.96	380.99
432.014	392.47
432.068	298.34
432.122	397.07
432.176	417.73
432.23	346.55
432.284	408.55
432.338	277.67
432.392	355.74
432.446	355.74
432.5	307.52
432.554	337.37
432.608	273.08
432.662	358.03
432.716	316.71
432.77	355.74
432.824	358.03
432.878	302.93
432.931	293.75
432.985	364.92
433.039	371.81
433.093	380.99
433.147	371.81
433.201	408.55
433.254	353.44
433.308	337.37
433.362	406.25
433.416	360.33
433.47	337.37
433.523	392.47
433.577	348.85
433.631	397.07
433.684	337.37
433.738	376.4
433.792	330.48
433.846	353.44
433.899	332.78
433.953	367.22
434.006	348.85
434.06	298.34
434.114	364.92
434.167	364.92
434.221	364.92
