Data from FLMS155811_13-11-51-076.txt Node
Date: Wed Mar 25 13:11:51 MDT 2020
User: ECEn Student
Spectrometer: FLMS15581
Trigger mode: 0
Integration Time (sec): 1.000000E-1
Scans to average: 1
Electric dark correction enabled: true
Nonlinearity correction enabled: false
Boxcar width: 0
XAxis mode: Wavelengths
Number of Pixels in Spectrum: 2048
>>>>>Begin Spectral Data<<<<<
298.026	7.89
298.106	7.89
298.185	7.89
298.265	-81.65
298.344	-77.06
298.424	-65.58
298.503	-116.09
298.583	-104.61
298.662	-72.47
298.741	-42.62
298.821	-42.62
298.9	-12.77
298.98	-88.54
299.059	-17.36
299.138	-31.14
299.217	92.84
299.297	81.36
299.376	79.07
299.455	106.62
299.535	141.06
299.614	92.84
299.693	159.43
299.772	67.59
299.852	113.51
299.931	170.91
300.01	248.97
300.089	198.46
300.168	267.34
300.247	235.2
300.327	265.05
300.406	258.16
300.485	292.6
300.564	276.53
300.643	333.93
300.722	301.78
300.801	308.67
300.88	301.78
300.959	327.04
301.038	386.73
301.117	329.33
301.196	352.29
301.275	315.56
301.354	333.93
301.433	386.73
301.512	402.81
301.591	391.33
301.67	386.73
301.749	372.96
301.828	350
301.907	361.48
301.985	361.48
302.064	354.59
302.143	375.25
302.222	446.43
302.301	414.29
302.38	363.77
302.458	384.44
302.537	333.93
302.616	370.66
302.695	363.77
302.773	361.48
302.852	338.52
302.931	414.29
303.01	308.67
303.088	370.66
303.167	354.59
303.246	407.4
303.324	377.55
303.403	329.33
303.481	400.51
303.56	343.11
303.639	391.33
303.717	322.45
303.796	343.11
303.874	343.11
303.953	322.45
304.032	324.74
304.11	336.22
304.189	327.04
304.267	345.41
304.346	322.45
304.424	308.67
304.502	366.07
304.581	297.19
304.659	361.48
304.738	368.37
304.816	352.29
304.895	288.01
304.973	322.45
305.051	253.57
305.13	400.51
305.208	331.63
305.286	400.51
305.365	391.33
305.443	379.85
305.521	366.07
305.6	340.81
305.678	338.52
305.756	292.6
305.834	368.37
305.913	343.11
305.991	331.63
306.069	389.03
306.147	393.62
306.225	290.3
306.304	317.85
306.382	304.08
306.46	377.55
306.538	320.15
306.616	283.41
306.694	347.7
306.772	322.45
306.85	304.08
306.929	329.33
307.007	338.52
307.085	375.25
307.163	354.59
307.241	299.49
307.319	398.21
307.397	288.01
307.475	356.89
307.553	393.62
307.631	343.11
307.709	350
307.786	400.51
307.864	333.93
307.942	315.56
308.02	405.1
308.098	377.55
308.176	288.01
308.254	271.93
308.332	340.81
308.409	350
308.487	331.63
308.565	350
308.643	421.17
308.721	377.55
308.798	331.63
308.876	308.67
308.954	354.59
309.032	333.93
309.109	313.26
309.187	327.04
309.265	361.48
309.342	366.07
309.42	340.81
309.498	354.59
309.575	310.97
309.653	391.33
309.731	315.56
309.808	345.41
309.886	347.7
309.963	416.58
310.041	356.89
310.119	290.3
310.196	352.29
310.274	274.23
310.351	313.26
310.429	347.7
310.506	356.89
310.584	299.49
310.661	398.21
310.738	345.41
310.816	453.32
310.893	457.91
310.971	366.07
311.048	386.73
311.126	352.29
311.203	386.73
311.28	375.25
311.358	343.11
311.435	340.81
311.512	354.59
311.59	327.04
311.667	320.15
311.744	354.59
311.821	418.88
311.899	310.97
311.976	310.97
312.053	434.95
312.13	352.29
312.208	320.15
312.285	453.32
312.362	389.03
312.439	354.59
312.516	368.37
312.593	425.77
312.671	363.77
312.748	391.33
312.825	398.21
312.902	405.1
312.979	432.65
313.056	393.62
313.133	411.99
313.21	345.41
313.287	405.1
313.364	350
313.441	366.07
313.518	366.07
313.595	384.44
313.672	382.14
313.749	377.55
313.826	389.03
313.903	375.25
313.98	347.7
314.057	402.81
314.134	317.85
314.211	372.96
314.287	347.7
314.364	347.7
314.441	389.03
314.518	393.62
314.595	407.4
314.672	434.95
314.748	370.66
314.825	377.55
314.902	352.29
314.979	377.55
315.055	368.37
315.132	345.41
315.209	359.18
315.286	386.73
315.362	428.06
315.439	304.08
315.516	379.85
315.592	455.61
315.669	405.1
315.746	352.29
315.822	372.96
315.899	354.59
315.975	310.97
316.052	336.22
316.128	414.29
316.205	384.44
316.282	444.13
316.358	393.62
316.435	398.21
316.511	372.96
316.588	485.46
316.664	363.77
316.741	430.36
316.817	322.45
316.893	439.54
316.97	356.89
317.046	430.36
317.123	393.62
317.199	382.14
317.275	503.83
317.352	375.25
317.428	366.07
317.504	375.25
317.581	416.58
317.657	462.5
317.733	375.25
317.81	416.58
317.886	347.7
317.962	340.81
318.038	350
318.115	361.48
318.191	386.73
318.267	384.44
318.343	386.73
318.419	345.41
318.496	377.55
318.572	372.96
318.648	384.44
318.724	423.47
318.8	366.07
318.876	372.96
318.952	384.44
319.028	347.7
319.105	372.96
319.181	448.73
319.257	361.48
319.333	407.4
319.409	375.25
319.485	393.62
319.561	389.03
319.637	451.02
319.713	382.14
319.789	389.03
319.865	384.44
319.94	377.55
320.016	409.69
320.092	389.03
320.168	322.45
320.244	370.66
320.32	428.06
320.396	393.62
320.472	372.96
320.547	400.51
320.623	331.63
320.699	393.62
320.775	430.36
320.851	393.62
320.926	379.85
321.002	350
321.078	375.25
321.154	361.48
321.229	347.7
321.305	368.37
321.381	400.51
321.456	366.07
321.532	368.37
321.608	370.66
321.683	432.65
321.759	315.56
321.835	329.33
321.91	350
321.986	395.92
322.061	322.45
322.137	386.73
322.212	356.89
322.288	368.37
322.364	308.67
322.439	372.96
322.515	395.92
322.59	462.5
322.666	350
322.741	384.44
322.816	402.81
322.892	359.18
322.967	432.65
323.043	414.29
323.118	329.33
323.193	347.7
323.269	405.1
323.344	331.63
323.42	418.88
323.495	389.03
323.57	356.89
323.646	382.14
323.721	377.55
323.796	375.25
323.871	432.65
323.947	347.7
324.022	370.66
324.097	327.04
324.172	393.62
324.248	395.92
324.323	416.58
324.398	395.92
324.473	434.95
324.548	356.89
324.623	386.73
324.699	359.18
324.774	405.1
324.849	405.1
324.924	393.62
324.999	441.84
325.074	400.51
325.149	409.69
325.224	350
325.299	366.07
325.374	363.77
325.449	301.78
325.524	398.21
325.599	340.81
325.674	398.21
325.749	407.4
325.824	347.7
325.899	382.14
325.974	377.55
326.049	359.18
326.124	418.88
326.199	407.4
326.273	439.54
326.348	372.96
326.423	322.45
326.498	320.15
326.573	441.84
326.648	375.25
326.722	361.48
326.797	372.96
326.872	384.44
326.947	409.69
327.021	384.44
327.096	423.47
327.171	361.48
327.245	379.85
327.32	379.85
327.395	366.07
327.47	386.73
327.544	405.1
327.619	418.88
327.693	386.73
327.768	329.33
327.843	382.14
327.917	395.92
327.992	329.33
328.066	428.06
328.141	402.81
328.215	398.21
328.29	331.63
328.364	288.01
328.439	379.85
328.513	393.62
328.588	460.21
328.662	372.96
328.737	313.26
328.811	395.92
328.886	370.66
328.96	372.96
329.035	352.29
329.109	372.96
329.183	409.69
329.258	409.69
329.332	402.81
329.406	395.92
329.481	375.25
329.555	402.81
329.629	375.25
329.704	356.89
329.778	423.47
329.852	407.4
329.926	407.4
330.001	389.03
330.075	411.99
330.149	405.1
330.223	446.43
330.297	405.1
330.372	368.37
330.446	402.81
330.52	350
330.594	434.95
330.668	372.96
330.742	359.18
330.816	347.7
330.89	386.73
330.964	400.51
331.038	462.5
331.113	391.33
331.187	393.62
331.261	395.92
331.335	375.25
331.409	414.29
331.483	370.66
331.557	343.11
331.63	308.67
331.704	343.11
331.778	400.51
331.852	340.81
331.926	423.47
332	411.99
332.074	382.14
332.148	356.89
332.222	354.59
332.295	409.69
332.369	430.36
332.443	379.85
332.517	444.13
332.591	361.48
332.665	352.29
332.738	416.58
332.812	345.41
332.886	363.77
332.959	354.59
333.033	405.1
333.107	336.22
333.181	361.48
333.254	361.48
333.328	356.89
333.402	350
333.475	398.21
333.549	363.77
333.622	391.33
333.696	444.13
333.77	386.73
333.843	418.88
333.917	430.36
333.99	448.73
334.064	340.81
334.137	340.81
334.211	398.21
334.284	347.7
334.358	366.07
334.431	386.73
334.505	368.37
334.578	340.81
334.652	434.95
334.725	366.07
334.799	377.55
334.872	354.59
334.945	391.33
335.019	400.51
335.092	402.81
335.165	464.8
335.239	379.85
335.312	393.62
335.385	434.95
335.459	402.81
335.532	361.48
335.605	423.47
335.678	379.85
335.752	405.1
335.825	444.13
335.898	359.18
335.971	395.92
336.045	327.04
336.118	368.37
336.191	368.37
336.264	418.88
336.337	414.29
336.41	402.81
336.483	423.47
336.557	363.77
336.63	379.85
336.703	400.51
336.776	366.07
336.849	423.47
336.922	457.91
336.995	386.73
337.068	389.03
337.141	389.03
337.214	418.88
337.287	398.21
337.36	382.14
337.433	446.43
337.506	363.77
337.579	384.44
337.652	368.37
337.725	384.44
337.797	366.07
337.87	439.54
337.943	448.73
338.016	423.47
338.089	389.03
338.162	379.85
338.235	407.4
338.307	370.66
338.38	391.33
338.453	409.69
338.526	382.14
338.598	368.37
338.671	437.25
338.744	434.95
338.817	379.85
338.889	338.52
338.962	359.18
339.035	402.81
339.107	386.73
339.18	317.85
339.253	434.95
339.325	400.51
339.398	421.17
339.47	414.29
339.543	411.99
339.616	386.73
339.688	352.29
339.761	425.77
339.833	391.33
339.906	430.36
339.978	441.84
340.051	386.73
340.123	368.37
340.196	306.37
340.268	366.07
340.341	441.84
340.413	400.51
340.485	363.77
340.558	473.98
340.63	343.11
340.703	414.29
340.775	379.85
340.847	398.21
340.92	389.03
340.992	327.04
341.064	409.69
341.137	354.59
341.209	469.39
341.281	354.59
341.354	398.21
341.426	389.03
341.498	389.03
341.57	391.33
341.643	453.32
341.715	441.84
341.787	428.06
341.859	395.92
341.931	421.17
342.003	386.73
342.076	391.33
342.148	379.85
342.22	368.37
342.292	425.77
342.364	386.73
342.436	347.7
342.508	391.33
342.58	405.1
342.652	368.37
342.724	441.84
342.796	389.03
342.868	439.54
342.94	340.81
343.012	418.88
343.084	377.55
343.156	350
343.228	402.81
343.3	400.51
343.372	402.81
343.444	409.69
343.516	414.29
343.588	361.48
343.66	370.66
343.731	444.13
343.803	411.99
343.875	395.92
343.947	418.88
344.019	395.92
344.09	386.73
344.162	476.28
344.234	395.92
344.306	425.77
344.377	400.51
344.449	395.92
344.521	411.99
344.593	350
344.664	451.02
344.736	356.89
344.808	418.88
344.879	398.21
344.951	359.18
345.023	354.59
345.094	407.4
345.166	379.85
345.237	377.55
345.309	400.51
345.38	352.29
345.452	409.69
345.524	405.1
345.595	432.65
345.667	402.81
345.738	409.69
345.81	393.62
345.881	446.43
345.953	437.25
346.024	402.81
346.095	425.77
346.167	407.4
346.238	411.99
346.31	411.99
346.381	416.58
346.452	437.25
346.524	414.29
346.595	402.81
346.666	384.44
346.738	400.51
346.809	389.03
346.88	395.92
346.952	402.81
347.023	389.03
347.094	370.66
347.165	418.88
347.237	391.33
347.308	407.4
347.379	359.18
347.45	400.51
347.521	430.36
347.593	356.89
347.664	386.73
347.735	368.37
347.806	366.07
347.877	453.32
347.948	356.89
348.019	418.88
348.09	405.1
348.161	480.87
348.233	382.14
348.304	434.95
348.375	453.32
348.446	395.92
348.517	372.96
348.588	439.54
348.659	428.06
348.73	418.88
348.801	395.92
348.871	421.17
348.942	444.13
349.013	393.62
349.084	434.95
349.155	414.29
349.226	444.13
349.297	405.1
349.368	366.07
349.439	409.69
349.509	451.02
349.58	372.96
349.651	372.96
349.722	425.77
349.793	375.25
349.863	391.33
349.934	356.89
350.005	361.48
350.076	469.39
350.146	471.69
350.217	379.85
350.288	457.91
350.358	395.92
350.429	382.14
350.5	469.39
350.57	405.1
350.641	416.58
350.711	428.06
350.782	526.79
350.853	464.8
350.923	441.84
350.994	414.29
351.064	411.99
351.135	372.96
351.205	503.83
351.276	418.88
351.346	428.06
351.417	421.17
351.487	379.85
351.558	416.58
351.628	407.4
351.699	453.32
351.769	421.17
351.84	368.37
351.91	446.43
351.98	451.02
352.051	460.21
352.121	411.99
352.191	414.29
352.262	361.48
352.332	418.88
352.402	414.29
352.473	389.03
352.543	409.69
352.613	483.17
352.683	416.58
352.754	423.47
352.824	455.61
352.894	457.91
352.964	393.62
353.035	368.37
353.105	496.94
353.175	425.77
353.245	421.17
353.315	425.77
353.385	409.69
353.455	460.21
353.526	441.84
353.596	485.46
353.666	437.25
353.736	457.91
353.806	428.06
353.876	446.43
353.946	439.54
354.016	439.54
354.086	494.65
354.156	434.95
354.226	467.09
354.296	453.32
354.366	522.2
354.436	508.42
354.506	496.94
354.576	480.87
354.645	460.21
354.715	554.34
354.785	515.31
354.855	483.17
354.925	542.86
354.995	478.57
355.065	529.09
355.134	556.64
355.204	535.97
355.274	579.6
355.344	565.82
355.414	586.49
355.483	577.3
355.553	593.37
355.623	584.19
355.693	600.26
355.762	705.88
355.832	637
355.902	627.82
355.971	692.1
356.041	620.93
356.111	609.45
356.18	795.42
356.25	685.22
356.319	767.87
356.389	747.21
356.459	786.24
356.528	880.38
356.598	806.9
356.667	802.31
356.737	850.53
356.806	866.6
356.876	779.35
356.945	903.34
357.015	937.78
357.084	898.74
357.154	979.1
357.223	921.7
357.292	979.1
357.362	1020.43
357.431	1073.24
357.501	1087.02
357.57	1130.64
357.639	1091.61
357.709	1176.56
357.778	1183.45
357.847	1204.11
357.917	1231.67
357.986	1229.37
358.055	1309.73
358.124	1334.99
358.194	1295.95
358.263	1383.2
358.332	1481.93
358.401	1463.56
358.471	1654.13
358.54	1658.72
358.609	1569.18
358.678	1745.97
358.747	1704.64
358.816	1814.85
358.886	1849.29
358.955	1886.03
359.024	1892.92
359.093	2028.38
359.162	2092.67
359.231	2173.03
359.3	2232.73
359.369	2186.81
359.438	2469.21
359.507	2478.4
359.576	2400.33
359.645	2595.5
359.714	2866.42
359.783	2698.82
359.852	2882.5
359.921	3045.51
359.99	3125.87
360.059	3325.63
360.128	3529.97
360.197	3727.43
360.266	3718.24
360.334	3826.16
360.403	4064.94
360.472	4225.66
360.541	4273.88
360.61	4457.56
360.679	4769.82
360.747	4815.74
360.816	4978.75
360.885	5189.99
360.954	5424.18
361.022	5805.32
361.091	5966.04
361.16	6168.09
361.228	6374.73
361.297	6808.67
361.366	7022.2
361.434	7139.3
361.503	7460.74
361.572	7880.91
361.64	8138.06
361.709	8324.04
361.778	8551.34
361.846	8826.87
361.915	9088.61
361.983	9616.69
362.052	9754.45
362.12	9901.4
362.189	9915.17
362.257	10220.54
362.326	10558.06
362.394	10888.68
362.463	11187.16
362.531	11239.97
362.6	11630.29
362.668	11928.77
362.737	12369.61
362.805	12638.24
362.873	12709.42
362.942	13230.61
363.01	13416.59
363.079	13779.36
363.147	13946.97
363.215	14371.73
363.284	14619.7
363.352	14702.35
363.42	15173.04
363.488	15611.57
363.557	15997.3
363.625	16222.31
363.693	16442.73
363.761	16982.29
363.83	17122.35
363.898	17806.56
363.966	18231.32
364.034	18842.06
364.102	19131.36
364.171	19930.37
364.239	20561.77
364.307	21183.99
364.375	21673.04
364.443	22148.31
364.511	22979.47
364.579	23734.86
364.647	24777.24
364.715	25227.26
364.783	25911.47
364.851	26409.71
364.919	26671.45
364.987	27495.72
365.055	27918.18
365.123	28421.01
365.191	29135.07
365.259	29794.02
365.327	30021.33
365.395	30264.71
365.463	30985.65
365.531	31355.31
365.599	31878.8
365.667	33052.06
365.735	33306.92
365.802	33616.88
365.87	33963.58
365.938	34803.92
366.006	35306.74
366.074	35977.18
366.142	36282.55
366.209	36865.73
366.277	37249.17
366.345	37586.68
366.413	37811.69
366.48	37970.11
366.548	38027.51
366.616	38410.95
366.683	38842.6
366.751	38941.33
366.819	38909.18
366.886	39839.07
366.954	39620.94
367.022	40511.8
367.089	40433.73
367.157	40656.45
367.224	41230.45
367.292	41232.74
367.36	41898.59
367.427	42245.28
367.495	42428.96
367.562	43115.47
367.63	43310.63
367.697	43234.86
367.765	44095.87
367.832	43907.59
367.9	44504.56
367.967	44628.54
368.034	45083.15
368.102	45420.67
368.169	45817.87
368.237	46410.25
368.304	46729.39
368.371	47356.2
368.439	47278.14
368.506	47530.7
368.573	48093.22
368.641	47978.42
368.708	48359.56
368.775	48664.93
368.843	48648.85
368.91	49119.54
368.977	48763.65
369.044	49358.32
369.112	49362.91
369.179	49755.53
369.246	49649.91
369.313	50171.11
369.38	50168.81
369.448	50281.32
369.515	50731.34
369.582	50977.01
369.649	50552.25
369.716	51130.84
369.783	50846.14
369.85	51066.55
369.917	51387.99
369.984	51270.9
370.052	51505.09
370.119	51514.27
370.186	51440.8
370.253	51619.89
370.32	51613
370.387	51945.92
370.454	51592.34
370.521	51316.82
370.587	51452.28
370.654	51429.32
370.721	51610.71
370.788	51025.22
370.855	51043.59
370.922	50999.97
370.989	50308.87
371.056	50510.92
371.123	49633.84
371.189	49422.61
371.256	48529.46
371.323	47553.66
371.39	47213.85
371.457	46995.73
371.523	46155.39
371.59	45475.77
371.657	44757.12
371.724	43746.87
371.79	42229.21
371.857	41235.04
371.924	40344.19
371.991	38339.77
372.057	36640.72
372.124	35979.47
372.191	34301.09
372.257	32689.29
372.324	31077.49
372.39	29236.09
372.457	28065.13
372.524	26650.79
372.59	24866.79
372.657	23248.1
372.723	21629.41
372.79	20391.87
372.856	19170.39
372.923	17769.82
372.989	16573.6
373.056	15563.36
373.122	14323.51
373.189	13354.6
373.255	12383.38
373.322	11428.24
373.388	10711.89
373.454	9646.54
373.521	8960.03
373.587	8427.36
373.654	7692.64
373.72	7100.27
373.786	6517.08
373.853	6211.71
373.919	5715.77
373.985	5224.43
374.052	4850.18
374.118	4411.64
374.184	4124.64
374.25	3922.59
374.317	3608.04
374.383	3334.81
374.449	3160.31
374.515	2912.34
374.581	2806.73
374.648	2648.3
374.714	2480.69
374.78	2232.73
374.846	2209.77
374.912	2028.38
374.978	1984.76
375.044	1856.18
375.11	1755.16
375.177	1711.53
375.243	1541.63
375.309	1378.61
375.375	1484.23
375.441	1346.47
375.507	1392.39
375.573	1302.84
375.639	1194.93
375.705	1137.53
375.771	1059.46
375.837	1100.79
375.903	1054.87
375.968	956.14
376.034	930.89
376.1	933.18
376.166	843.64
376.232	894.15
376.298	781.65
376.364	809.2
376.43	816.09
376.495	756.39
376.561	726.54
376.627	749.5
376.693	735.73
376.759	733.43
376.824	653.07
376.89	676.03
376.956	637
377.022	703.58
377.087	646.18
377.153	620.93
377.219	563.53
377.284	607.15
377.35	558.93
377.416	510.72
377.481	581.89
377.547	620.93
377.613	625.52
377.678	595.67
377.744	572.71
377.809	570.41
377.875	508.42
377.94	529.09
378.006	513.01
378.071	538.27
378.137	556.64
378.202	570.41
378.268	563.53
378.333	490.05
378.399	526.79
378.464	471.69
378.53	423.47
378.595	469.39
378.661	460.21
378.726	446.43
378.791	483.17
378.857	460.21
378.922	492.35
378.987	391.33
379.053	407.4
379.118	444.13
379.183	524.49
379.249	411.99
379.314	398.21
379.379	414.29
379.444	441.84
379.51	451.02
379.575	393.62
379.64	460.21
379.705	515.31
379.771	542.86
379.836	492.35
379.901	467.09
379.966	464.8
380.031	372.96
380.096	483.17
380.161	434.95
380.227	398.21
380.292	457.91
380.357	402.81
380.422	393.62
380.487	446.43
380.552	451.02
380.617	444.13
380.682	508.42
380.747	467.09
380.812	384.44
380.877	469.39
380.942	446.43
381.007	478.57
381.072	421.17
381.137	448.73
381.202	487.76
381.266	389.03
381.331	478.57
381.396	389.03
381.461	467.09
381.526	428.06
381.591	506.13
381.656	405.1
381.72	501.53
381.785	444.13
381.85	434.95
381.915	428.06
381.979	451.02
382.044	444.13
382.109	395.92
382.174	423.47
382.238	361.48
382.303	428.06
382.368	418.88
382.432	386.73
382.497	359.18
382.562	428.06
382.626	430.36
382.691	407.4
382.756	441.84
382.82	391.33
382.885	389.03
382.949	389.03
383.014	409.69
383.078	423.47
383.143	457.91
383.208	382.14
383.272	400.51
383.337	421.17
383.401	372.96
383.465	338.52
383.53	425.77
383.594	402.81
383.659	402.81
383.723	361.48
383.788	352.29
383.852	409.69
383.916	370.66
383.981	421.17
384.045	469.39
384.109	409.69
384.174	471.69
384.238	418.88
384.302	402.81
384.367	418.88
384.431	402.81
384.495	501.53
384.56	407.4
384.624	384.44
384.688	416.58
384.752	430.36
384.816	402.81
384.881	391.33
384.945	425.77
385.009	446.43
385.073	347.7
385.137	421.17
385.201	379.85
385.265	400.51
385.33	402.81
385.394	407.4
385.458	453.32
385.522	414.29
385.586	462.5
385.65	462.5
385.714	400.51
385.778	405.1
385.842	400.51
385.906	409.69
385.97	386.73
386.034	457.91
386.098	478.57
386.162	379.85
386.226	411.99
386.29	423.47
386.354	379.85
386.417	400.51
386.481	400.51
386.545	389.03
386.609	377.55
386.673	409.69
386.737	421.17
386.8	411.99
386.864	405.1
386.928	386.73
386.992	393.62
387.056	411.99
387.119	370.66
387.183	437.25
387.247	386.73
387.31	411.99
387.374	366.07
387.438	372.96
387.502	416.58
387.565	391.33
387.629	356.89
387.692	384.44
387.756	448.73
387.82	418.88
387.883	379.85
387.947	411.99
388.01	398.21
388.074	356.89
388.138	407.4
388.201	405.1
388.265	453.32
388.328	441.84
388.392	356.89
388.455	432.65
388.519	391.33
388.582	400.51
388.645	405.1
388.709	379.85
388.772	354.59
388.836	352.29
388.899	352.29
388.962	391.33
389.026	418.88
389.089	453.32
389.153	428.06
389.216	345.41
389.279	379.85
389.343	393.62
389.406	414.29
389.469	398.21
389.532	425.77
389.596	382.14
389.659	434.95
389.722	418.88
389.785	368.37
389.848	446.43
389.912	379.85
389.975	391.33
390.038	356.89
390.101	405.1
390.164	384.44
390.227	418.88
390.291	375.25
390.354	402.81
390.417	377.55
390.48	411.99
390.543	439.54
390.606	338.52
390.669	402.81
390.732	354.59
390.795	480.87
390.858	402.81
390.921	416.58
390.984	370.66
391.047	329.33
391.11	395.92
391.173	343.11
391.236	377.55
391.299	368.37
391.362	352.29
391.424	409.69
391.487	400.51
391.55	354.59
391.613	372.96
391.676	423.47
391.739	393.62
391.802	434.95
391.864	393.62
391.927	393.62
391.99	359.18
392.053	347.7
392.115	336.22
392.178	425.77
392.241	421.17
392.304	441.84
392.366	411.99
392.429	439.54
392.492	345.41
392.554	393.62
392.617	377.55
392.68	430.36
392.742	457.91
392.805	343.11
392.867	343.11
392.93	359.18
392.992	375.25
393.055	444.13
393.118	391.33
393.18	405.1
393.243	386.73
393.305	411.99
393.368	446.43
393.43	384.44
393.493	418.88
393.555	391.33
393.618	411.99
393.68	379.85
393.742	379.85
393.805	375.25
393.867	444.13
393.93	375.25
393.992	395.92
394.054	400.51
394.117	366.07
394.179	437.25
394.241	343.11
394.304	405.1
394.366	379.85
394.428	347.7
394.49	398.21
394.553	350
394.615	391.33
394.677	446.43
394.739	416.58
394.802	386.73
394.864	464.8
394.926	338.52
394.988	402.81
395.05	304.08
395.112	377.55
395.174	393.62
395.237	338.52
395.299	379.85
395.361	432.65
395.423	423.47
395.485	393.62
395.547	389.03
395.609	405.1
395.671	331.63
395.733	350
395.795	389.03
395.857	345.41
395.919	409.69
395.981	363.77
396.043	377.55
396.105	345.41
396.167	444.13
396.229	338.52
396.291	315.56
396.352	368.37
396.414	379.85
396.476	340.81
396.538	356.89
396.6	405.1
396.662	363.77
396.724	441.84
396.785	386.73
396.847	389.03
396.909	382.14
396.971	384.44
397.032	350
397.094	372.96
397.156	400.51
397.218	407.4
397.279	352.29
397.341	414.29
397.403	416.58
397.464	356.89
397.526	386.73
397.588	340.81
397.649	441.84
397.711	336.22
397.772	425.77
397.834	391.33
397.896	359.18
397.957	354.59
398.019	425.77
398.08	377.55
398.142	338.52
398.203	331.63
398.265	453.32
398.326	377.55
398.388	391.33
398.449	320.15
398.511	363.77
398.572	354.59
398.633	368.37
398.695	508.42
398.756	393.62
398.818	306.37
398.879	375.25
398.94	382.14
399.002	377.55
399.063	370.66
399.124	382.14
399.186	370.66
399.247	444.13
399.308	441.84
399.369	386.73
399.431	310.97
399.492	372.96
399.553	354.59
399.614	391.33
399.676	340.81
399.737	389.03
399.798	306.37
399.859	324.74
399.92	366.07
399.981	386.73
400.042	386.73
400.104	400.51
400.165	400.51
400.226	453.32
400.287	372.96
400.348	372.96
400.409	379.85
400.47	375.25
400.531	391.33
400.592	338.52
400.653	389.03
400.714	391.33
400.775	434.95
400.836	407.4
400.897	315.56
400.958	363.77
401.019	306.37
401.08	395.92
401.141	405.1
401.201	382.14
401.262	444.13
401.323	418.88
401.384	409.69
401.445	363.77
401.506	416.58
401.567	354.59
401.627	329.33
401.688	411.99
401.749	384.44
401.81	354.59
401.87	384.44
401.931	398.21
401.992	352.29
402.053	356.89
402.113	361.48
402.174	366.07
402.235	377.55
402.295	340.81
402.356	338.52
402.417	363.77
402.477	315.56
402.538	405.1
402.598	354.59
402.659	333.93
402.719	375.25
402.78	405.1
402.841	395.92
402.901	411.99
402.962	418.88
403.022	379.85
403.083	336.22
403.143	418.88
403.204	338.52
403.264	333.93
403.324	340.81
403.385	384.44
403.445	384.44
403.506	361.48
403.566	331.63
403.627	336.22
403.687	421.17
403.747	370.66
403.808	473.98
403.868	423.47
403.928	366.07
403.989	384.44
404.049	359.18
404.109	379.85
404.169	391.33
404.23	402.81
404.29	370.66
404.35	354.59
404.41	317.85
404.47	329.33
404.531	352.29
404.591	331.63
404.651	333.93
404.711	347.7
404.771	389.03
404.831	428.06
404.892	359.18
404.952	327.04
405.012	324.74
405.072	327.04
405.132	375.25
405.192	377.55
405.252	343.11
405.312	363.77
405.372	384.44
405.432	352.29
405.492	336.22
405.552	386.73
405.612	338.52
405.672	375.25
405.732	382.14
405.792	389.03
405.852	423.47
405.912	343.11
405.971	407.4
406.031	370.66
406.091	336.22
406.151	405.1
406.211	359.18
406.271	377.55
406.33	340.81
406.39	352.29
406.45	345.41
406.51	363.77
406.57	414.29
406.629	409.69
406.689	405.1
406.749	393.62
406.808	375.25
406.868	386.73
406.928	379.85
406.988	327.04
407.047	352.29
407.107	361.48
407.166	368.37
407.226	313.26
407.286	375.25
407.345	308.67
407.405	395.92
407.464	354.59
407.524	372.96
407.584	315.56
407.643	402.81
407.703	372.96
407.762	343.11
407.822	416.58
407.881	400.51
407.941	448.73
408	389.03
408.059	414.29
408.119	354.59
408.178	338.52
408.238	379.85
408.297	363.77
408.356	363.77
408.416	310.97
408.475	379.85
408.535	336.22
408.594	361.48
408.653	389.03
408.712	402.81
408.772	363.77
408.831	393.62
408.89	345.41
408.95	317.85
409.009	384.44
409.068	347.7
409.127	379.85
409.186	366.07
409.246	370.66
409.305	384.44
409.364	370.66
409.423	372.96
409.482	389.03
409.541	400.51
409.6	393.62
409.66	409.69
409.719	352.29
409.778	368.37
409.837	393.62
409.896	379.85
409.955	393.62
410.014	372.96
410.073	414.29
410.132	343.11
410.191	345.41
410.25	356.89
410.309	320.15
410.368	354.59
410.427	451.02
410.486	320.15
410.545	343.11
410.603	407.4
410.662	352.29
410.721	294.89
410.78	370.66
410.839	405.1
410.898	446.43
410.957	359.18
411.015	368.37
411.074	331.63
411.133	372.96
411.192	338.52
411.25	322.45
411.309	363.77
411.368	363.77
411.427	370.66
411.485	384.44
411.544	386.73
411.603	352.29
411.661	356.89
411.72	350
411.779	347.7
411.837	405.1
411.896	354.59
411.955	352.29
412.013	354.59
412.072	375.25
412.13	372.96
412.189	370.66
412.247	336.22
412.306	375.25
412.364	370.66
412.423	315.56
412.481	377.55
412.54	384.44
412.598	411.99
412.657	391.33
412.715	336.22
412.774	391.33
412.832	398.21
412.891	356.89
412.949	421.17
413.007	375.25
413.066	453.32
413.124	386.73
413.182	398.21
413.241	379.85
413.299	333.93
413.357	372.96
413.416	350
413.474	350
413.532	409.69
413.59	363.77
413.649	366.07
413.707	350
413.765	340.81
413.823	333.93
413.881	315.56
413.94	379.85
413.998	372.96
414.056	400.51
414.114	350
414.172	391.33
414.23	345.41
414.288	361.48
414.347	370.66
414.405	294.89
414.463	370.66
414.521	338.52
414.579	418.88
414.637	405.1
414.695	336.22
414.753	354.59
414.811	393.62
414.869	379.85
414.927	423.47
414.985	370.66
415.043	315.56
415.101	324.74
415.158	437.25
415.216	437.25
415.274	377.55
415.332	368.37
415.39	354.59
415.448	384.44
415.506	347.7
415.563	354.59
415.621	350
415.679	389.03
415.737	375.25
415.795	416.58
415.852	306.37
415.91	418.88
415.968	382.14
416.026	347.7
416.083	377.55
416.141	414.29
416.199	398.21
416.256	379.85
416.314	375.25
416.372	336.22
416.429	350
416.487	359.18
416.544	391.33
416.602	343.11
416.66	356.89
416.717	340.81
416.775	350
416.832	439.54
416.89	340.81
416.947	343.11
417.005	391.33
417.062	428.06
417.12	329.33
417.177	400.51
417.235	395.92
417.292	297.19
417.35	379.85
417.407	352.29
417.464	343.11
417.522	400.51
417.579	368.37
417.637	423.47
417.694	372.96
417.751	368.37
417.809	301.78
417.866	308.67
417.923	377.55
417.981	361.48
418.038	391.33
418.095	356.89
418.152	329.33
418.21	400.51
418.267	391.33
418.324	324.74
418.381	333.93
418.438	366.07
418.496	306.37
418.553	269.64
418.61	294.89
418.667	308.67
418.724	402.81
418.781	395.92
418.838	363.77
418.895	363.77
418.952	393.62
419.01	393.62
419.067	414.29
419.124	411.99
419.181	347.7
419.238	398.21
419.295	457.91
419.352	368.37
419.409	389.03
419.466	384.44
419.523	345.41
419.579	352.29
419.636	313.26
419.693	354.59
419.75	384.44
419.807	402.81
419.864	313.26
419.921	340.81
419.978	333.93
420.034	338.52
420.091	366.07
420.148	317.85
420.205	441.84
420.262	290.3
420.318	361.48
420.375	384.44
420.432	366.07
420.489	418.88
420.545	366.07
420.602	359.18
420.659	393.62
420.715	375.25
420.772	361.48
420.829	411.99
420.885	377.55
420.942	421.17
420.999	425.77
421.055	359.18
421.112	324.74
421.168	350
421.225	288.01
421.282	350
421.338	386.73
421.395	414.29
421.451	331.63
421.508	372.96
421.564	377.55
421.621	359.18
421.677	317.85
421.734	359.18
421.79	393.62
421.846	386.73
421.903	372.96
421.959	366.07
422.016	363.77
422.072	320.15
422.128	368.37
422.185	333.93
422.241	389.03
422.297	402.81
422.354	379.85
422.41	372.96
422.466	391.33
422.523	345.41
422.579	430.36
422.635	354.59
422.691	338.52
422.748	333.93
422.804	393.62
422.86	329.33
422.916	393.62
422.972	320.15
423.029	359.18
423.085	352.29
423.141	361.48
423.197	356.89
423.253	361.48
423.309	400.51
423.365	350
423.421	322.45
423.477	370.66
423.533	368.37
423.589	356.89
423.645	414.29
423.701	391.33
423.757	368.37
423.813	382.14
423.869	366.07
423.925	345.41
423.981	389.03
424.037	363.77
424.093	375.25
424.149	343.11
424.205	329.33
424.261	359.18
424.317	370.66
424.373	333.93
424.428	340.81
424.484	329.33
424.54	340.81
424.596	331.63
424.652	382.14
424.708	340.81
424.763	375.25
424.819	386.73
424.875	354.59
424.931	315.56
424.986	313.26
425.042	343.11
425.098	409.69
425.153	416.58
425.209	359.18
425.265	363.77
425.32	464.8
425.376	347.7
425.432	363.77
425.487	322.45
425.543	338.52
425.598	352.29
425.654	265.05
425.709	389.03
425.765	372.96
425.82	384.44
425.876	354.59
425.932	375.25
425.987	386.73
426.042	324.74
426.098	370.66
426.153	361.48
426.209	393.62
426.264	395.92
426.32	386.73
426.375	336.22
426.43	354.59
426.486	411.99
426.541	386.73
426.597	377.55
426.652	393.62
426.707	315.56
426.763	338.52
426.818	386.73
426.873	350
426.928	306.37
426.984	313.26
427.039	384.44
427.094	350
427.149	446.43
427.205	350
427.26	285.71
427.315	297.19
427.37	409.69
427.425	370.66
427.48	345.41
427.536	391.33
427.591	317.85
427.646	343.11
427.701	322.45
427.756	361.48
427.811	333.93
427.866	366.07
427.921	345.41
427.976	368.37
428.031	340.81
428.086	391.33
428.141	389.03
428.196	366.07
428.251	331.63
428.306	354.59
428.361	361.48
428.416	340.81
428.471	347.7
428.526	340.81
428.581	398.21
428.636	336.22
428.691	313.26
428.745	366.07
428.8	405.1
428.855	368.37
428.91	352.29
428.965	313.26
429.02	375.25
429.074	377.55
429.129	359.18
429.184	382.14
429.239	359.18
429.293	338.52
429.348	345.41
429.403	331.63
429.457	361.48
429.512	322.45
429.567	425.77
429.621	375.25
429.676	354.59
429.731	455.61
429.785	437.25
429.84	345.41
429.895	347.7
429.949	343.11
430.004	324.74
430.058	366.07
430.113	324.74
430.167	347.7
430.222	340.81
430.276	327.04
430.331	366.07
430.385	363.77
430.44	338.52
430.494	350
430.549	393.62
430.603	338.52
430.657	352.29
430.712	361.48
430.766	391.33
430.821	324.74
430.875	352.29
430.929	368.37
430.984	409.69
431.038	411.99
431.092	345.41
431.147	359.18
431.201	359.18
431.255	375.25
431.309	356.89
431.364	361.48
431.418	331.63
431.472	285.71
431.526	411.99
431.581	361.48
431.635	354.59
431.689	359.18
431.743	308.67
431.797	356.89
431.851	327.04
431.906	343.11
431.96	281.12
432.014	393.62
432.068	384.44
432.122	361.48
432.176	313.26
432.23	333.93
432.284	379.85
432.338	343.11
432.392	386.73
432.446	281.12
432.5	414.29
432.554	428.06
432.608	386.73
432.662	322.45
432.716	361.48
432.77	363.77
432.824	379.85
432.878	340.81
432.931	340.81
432.985	409.69
433.039	324.74
433.093	322.45
433.147	391.33
433.201	327.04
433.254	361.48
433.308	350
433.362	423.47
433.416	361.48
433.47	366.07
433.523	308.67
433.577	336.22
433.631	340.81
433.684	345.41
433.738	297.19
433.792	361.48
433.846	356.89
433.899	386.73
433.953	398.21
434.006	308.67
434.06	336.22
434.114	379.85
434.167	379.85
434.221	379.85
