Data from FLMS155811_13-11-55-676.txt Node
Date: Wed Mar 25 13:11:55 MDT 2020
User: ECEn Student
Spectrometer: FLMS15581
Trigger mode: 0
Integration Time (sec): 1.000000E-1
Scans to average: 1
Electric dark correction enabled: true
Nonlinearity correction enabled: false
Boxcar width: 0
XAxis mode: Wavelengths
Number of Pixels in Spectrum: 2048
>>>>>Begin Spectral Data<<<<<
298.026	-68.59
298.106	-68.59
298.185	-68.59
298.265	-13.49
298.344	-75.48
298.424	-54.82
298.503	-75.48
298.583	-59.41
298.662	-36.45
298.741	-114.51
298.821	-11.19
298.9	-54.82
298.98	14.06
299.059	11.77
299.138	9.47
299.217	-31.86
299.297	34.73
299.376	82.94
299.455	39.32
299.535	117.38
299.614	128.86
299.693	110.5
299.772	181.67
299.852	209.22
299.931	206.93
300.01	186.26
300.089	236.78
300.168	206.93
300.247	266.62
300.327	248.26
300.406	259.74
300.485	284.99
300.564	312.54
300.643	333.21
300.722	296.47
300.801	328.62
300.88	296.47
300.959	369.94
301.038	337.8
301.117	342.39
301.196	335.5
301.275	379.13
301.354	379.13
301.433	395.2
301.512	351.58
301.591	399.79
301.67	374.54
301.749	466.38
301.828	342.39
301.907	351.58
301.985	349.28
302.064	381.42
302.143	381.42
302.222	351.58
302.301	360.76
302.38	360.76
302.458	386.02
302.537	418.16
302.616	397.5
302.695	351.58
302.773	342.39
302.852	369.94
302.931	372.24
303.01	301.06
303.088	360.76
303.167	337.8
303.246	305.66
303.324	353.87
303.403	280.4
303.481	319.43
303.56	326.32
303.639	374.54
303.717	363.06
303.796	390.61
303.874	317.14
303.953	349.28
304.032	326.32
304.11	344.69
304.189	321.73
304.267	280.4
304.346	351.58
304.424	294.18
304.502	326.32
304.581	434.23
304.659	326.32
304.738	374.54
304.816	305.66
304.895	358.46
304.973	374.54
305.051	317.14
305.13	340.1
305.208	374.54
305.286	259.74
305.365	349.28
305.443	358.46
305.521	425.05
305.6	340.1
305.678	346.98
305.756	305.66
305.834	305.66
305.913	388.31
305.991	324.02
306.069	271.22
306.147	296.47
306.225	333.21
306.304	379.13
306.382	273.51
306.46	349.28
306.538	296.47
306.616	337.8
306.694	342.39
306.772	363.06
306.85	369.94
306.929	360.76
307.007	335.5
307.085	351.58
307.163	372.24
307.241	351.58
307.319	397.5
307.397	317.14
307.475	360.76
307.553	404.38
307.631	411.27
307.709	333.21
307.786	390.61
307.864	369.94
307.942	369.94
308.02	280.4
308.098	392.9
308.176	422.75
308.254	333.21
308.332	314.84
308.409	395.2
308.487	363.06
308.565	328.62
308.643	333.21
308.721	333.21
308.798	369.94
308.876	390.61
308.954	390.61
309.032	305.66
309.109	360.76
309.187	333.21
309.265	358.46
309.342	330.91
309.42	415.86
309.498	420.46
309.575	346.98
309.653	369.94
309.731	369.94
309.808	383.72
309.886	386.02
309.963	307.95
310.041	383.72
310.119	397.5
310.196	326.32
310.274	402.09
310.351	441.12
310.429	353.87
310.506	374.54
310.584	372.24
310.661	353.87
310.738	369.94
310.816	344.69
310.893	353.87
310.971	349.28
311.048	376.83
311.126	397.5
311.203	353.87
311.28	344.69
311.358	406.68
311.435	356.17
311.512	351.58
311.59	386.02
311.667	335.5
311.744	305.66
311.821	367.65
311.899	388.31
311.976	379.13
312.053	395.2
312.13	296.47
312.208	379.13
312.285	383.72
312.362	333.21
312.439	438.82
312.516	360.76
312.593	369.94
312.671	395.2
312.748	402.09
312.825	298.77
312.902	346.98
312.979	402.09
313.056	314.84
313.133	386.02
313.21	399.79
313.287	376.83
313.364	386.02
313.441	388.31
313.518	415.86
313.595	353.87
313.672	351.58
313.749	342.39
313.826	388.31
313.903	397.5
313.98	317.14
314.057	351.58
314.134	337.8
314.211	392.9
314.287	379.13
314.364	418.16
314.441	420.46
314.518	363.06
314.595	537.55
314.672	388.31
314.748	381.42
314.825	399.79
314.902	413.57
314.979	395.2
315.055	369.94
315.132	399.79
315.209	349.28
315.286	457.19
315.362	351.58
315.439	333.21
315.516	372.24
315.592	342.39
315.669	326.32
315.746	388.31
315.822	383.72
315.899	431.94
315.975	360.76
316.052	413.57
316.128	397.5
316.205	335.5
316.282	415.86
316.358	328.62
316.435	397.5
316.511	369.94
316.588	413.57
316.664	392.9
316.741	399.79
316.817	365.35
316.893	342.39
316.97	383.72
317.046	344.69
317.123	376.83
317.199	395.2
317.275	333.21
317.352	298.77
317.428	408.98
317.504	356.17
317.581	392.9
317.657	388.31
317.733	427.34
317.81	386.02
317.886	381.42
317.962	386.02
318.038	365.35
318.115	353.87
318.191	333.21
318.267	363.06
318.343	392.9
318.419	363.06
318.496	381.42
318.572	374.54
318.648	413.57
318.724	321.73
318.8	395.2
318.876	399.79
318.952	381.42
319.028	356.17
319.105	383.72
319.181	402.09
319.257	376.83
319.333	353.87
319.409	422.75
319.485	390.61
319.561	326.32
319.637	356.17
319.713	399.79
319.789	333.21
319.865	349.28
319.94	358.46
320.016	340.1
320.092	390.61
320.168	452.6
320.244	425.05
320.32	402.09
320.396	346.98
320.472	381.42
320.547	475.56
320.623	402.09
320.699	408.98
320.775	441.12
320.851	395.2
320.926	418.16
321.002	431.94
321.078	363.06
321.154	402.09
321.229	379.13
321.305	399.79
321.381	415.86
321.456	353.87
321.532	344.69
321.608	365.35
321.683	376.83
321.759	411.27
321.835	450.3
321.91	413.57
321.986	413.57
322.061	383.72
322.137	390.61
322.212	406.68
322.288	434.23
322.364	369.94
322.439	363.06
322.515	408.98
322.59	369.94
322.666	397.5
322.741	356.17
322.816	431.94
322.892	367.65
322.967	324.02
323.043	365.35
323.118	390.61
323.193	443.42
323.269	402.09
323.344	337.8
323.42	450.3
323.495	335.5
323.57	443.42
323.646	335.5
323.721	372.24
323.796	365.35
323.871	312.54
323.947	374.54
324.022	399.79
324.097	372.24
324.172	381.42
324.248	388.31
324.323	427.34
324.398	441.12
324.473	367.65
324.548	386.02
324.623	337.8
324.699	436.53
324.774	392.9
324.849	379.13
324.924	415.86
324.999	330.91
325.074	404.38
325.149	340.1
325.224	402.09
325.299	374.54
325.374	369.94
325.449	337.8
325.524	365.35
325.599	376.83
325.674	367.65
325.749	356.17
325.824	367.65
325.899	381.42
325.974	324.02
326.049	374.54
326.124	395.2
326.199	411.27
326.273	363.06
326.348	392.9
326.423	372.24
326.498	392.9
326.573	390.61
326.648	326.32
326.722	523.78
326.797	386.02
326.872	482.45
326.947	399.79
327.021	358.46
327.096	434.23
327.171	360.76
327.245	367.65
327.32	436.53
327.395	397.5
327.47	369.94
327.544	365.35
327.619	429.64
327.693	390.61
327.768	392.9
327.843	346.98
327.917	376.83
327.992	335.5
328.066	367.65
328.141	450.3
328.215	395.2
328.29	434.23
328.364	363.06
328.439	411.27
328.513	360.76
328.588	392.9
328.662	397.5
328.737	353.87
328.811	372.24
328.886	333.21
328.96	399.79
329.035	425.05
329.109	358.46
329.183	303.36
329.258	356.17
329.332	381.42
329.406	369.94
329.481	397.5
329.555	356.17
329.629	422.75
329.704	353.87
329.778	379.13
329.852	392.9
329.926	386.02
330.001	365.35
330.075	353.87
330.149	470.97
330.223	404.38
330.297	356.17
330.372	335.5
330.446	367.65
330.52	388.31
330.594	425.05
330.668	399.79
330.742	358.46
330.816	383.72
330.89	429.64
330.964	429.64
331.038	376.83
331.113	346.98
331.187	376.83
331.261	376.83
331.335	418.16
331.409	438.82
331.483	454.9
331.557	301.06
331.63	346.98
331.704	376.83
331.778	349.28
331.852	381.42
331.926	358.46
332	353.87
332.074	379.13
332.148	374.54
332.222	399.79
332.295	383.72
332.369	404.38
332.443	402.09
332.517	404.38
332.591	418.16
332.665	372.24
332.738	406.68
332.812	353.87
332.886	397.5
332.959	413.57
333.033	418.16
333.107	383.72
333.181	404.38
333.254	379.13
333.328	383.72
333.402	390.61
333.475	431.94
333.549	397.5
333.622	374.54
333.696	381.42
333.77	390.61
333.843	388.31
333.917	356.17
333.99	381.42
334.064	413.57
334.137	353.87
334.211	392.9
334.284	431.94
334.358	386.02
334.431	434.23
334.505	363.06
334.578	441.12
334.652	397.5
334.725	383.72
334.799	425.05
334.872	390.61
334.945	379.13
335.019	402.09
335.092	386.02
335.165	383.72
335.239	376.83
335.312	429.64
335.385	372.24
335.459	374.54
335.532	404.38
335.605	351.58
335.678	413.57
335.752	367.65
335.825	422.75
335.898	342.39
335.971	411.27
336.045	438.82
336.118	365.35
336.191	397.5
336.264	397.5
336.337	395.2
336.41	395.2
336.483	381.42
336.557	411.27
336.63	383.72
336.703	374.54
336.776	438.82
336.849	418.16
336.922	372.24
336.995	376.83
337.068	353.87
337.141	363.06
337.214	335.5
337.287	399.79
337.36	388.31
337.433	404.38
337.506	358.46
337.579	390.61
337.652	390.61
337.725	374.54
337.797	420.46
337.87	392.9
337.943	408.98
338.016	376.83
338.089	353.87
338.162	408.98
338.235	418.16
338.307	413.57
338.38	369.94
338.453	367.65
338.526	450.3
338.598	445.71
338.671	388.31
338.744	388.31
338.817	429.64
338.889	406.68
338.962	344.69
339.035	383.72
339.107	392.9
339.18	372.24
339.253	429.64
339.325	381.42
339.398	431.94
339.47	413.57
339.543	376.83
339.616	445.71
339.688	431.94
339.761	388.31
339.833	411.27
339.906	392.9
339.978	363.06
340.051	411.27
340.123	351.58
340.196	399.79
340.268	459.49
340.341	386.02
340.413	395.2
340.485	415.86
340.558	372.24
340.63	351.58
340.703	383.72
340.775	443.42
340.847	470.97
340.92	441.12
340.992	356.17
341.064	363.06
341.137	383.72
341.209	374.54
341.281	397.5
341.354	468.67
341.426	404.38
341.498	408.98
341.57	344.69
341.643	388.31
341.715	402.09
341.787	406.68
341.859	344.69
341.931	487.04
342.003	392.9
342.076	386.02
342.148	356.17
342.22	395.2
342.292	411.27
342.364	427.34
342.436	452.6
342.508	408.98
342.58	346.98
342.652	363.06
342.724	418.16
342.796	388.31
342.868	390.61
342.94	399.79
343.012	372.24
343.084	353.87
343.156	383.72
343.228	441.12
343.3	376.83
343.372	399.79
343.444	408.98
343.516	445.71
343.588	438.82
343.66	457.19
343.731	363.06
343.803	408.98
343.875	418.16
343.947	450.3
344.019	404.38
344.09	386.02
344.162	422.75
344.234	408.98
344.306	415.86
344.377	466.38
344.449	379.13
344.521	351.58
344.593	427.34
344.664	425.05
344.736	413.57
344.808	392.9
344.879	475.56
344.951	431.94
345.023	448.01
345.094	383.72
345.166	422.75
345.237	404.38
345.309	333.21
345.38	395.2
345.452	376.83
345.524	374.54
345.595	392.9
345.667	448.01
345.738	379.13
345.81	383.72
345.881	376.83
345.953	399.79
346.024	427.34
346.095	425.05
346.167	349.28
346.238	360.76
346.31	422.75
346.381	395.2
346.452	402.09
346.524	470.97
346.595	415.86
346.666	425.05
346.738	443.42
346.809	372.24
346.88	365.35
346.952	461.78
347.023	333.21
347.094	420.46
347.165	390.61
347.237	399.79
347.308	337.8
347.379	406.68
347.45	399.79
347.521	390.61
347.593	413.57
347.664	422.75
347.735	438.82
347.806	399.79
347.877	413.57
347.948	415.86
348.019	374.54
348.09	459.49
348.161	450.3
348.233	346.98
348.304	443.42
348.375	418.16
348.446	392.9
348.517	425.05
348.588	436.53
348.659	498.52
348.73	427.34
348.801	427.34
348.871	425.05
348.942	390.61
349.013	507.71
349.084	395.2
349.155	386.02
349.226	484.75
349.297	431.94
349.368	484.75
349.439	434.23
349.509	429.64
349.58	441.12
349.651	415.86
349.722	422.75
349.793	425.05
349.863	422.75
349.934	411.27
350.005	452.6
350.076	425.05
350.146	425.05
350.217	429.64
350.288	363.06
350.358	480.15
350.429	425.05
350.5	461.78
350.57	427.34
350.641	422.75
350.711	438.82
350.782	383.72
350.853	461.78
350.923	445.71
350.994	429.64
351.064	390.61
351.135	418.16
351.205	461.78
351.276	445.71
351.346	367.65
351.417	431.94
351.487	427.34
351.558	452.6
351.628	487.04
351.699	438.82
351.769	466.38
351.84	381.42
351.91	434.23
351.98	411.27
352.051	408.98
352.121	454.9
352.191	395.2
352.262	466.38
352.332	431.94
352.402	487.04
352.473	422.75
352.543	406.68
352.613	436.53
352.683	415.86
352.754	429.64
352.824	452.6
352.894	402.09
352.964	459.49
353.035	397.5
353.105	459.49
353.175	379.13
353.245	422.75
353.315	420.46
353.385	337.8
353.455	484.75
353.526	461.78
353.596	470.97
353.666	445.71
353.736	427.34
353.806	422.75
353.876	457.19
353.946	443.42
354.016	454.9
354.086	413.57
354.156	411.27
354.226	477.86
354.296	484.75
354.366	565.11
354.436	484.75
354.506	537.55
354.576	535.26
354.645	574.29
354.715	542.15
354.785	542.15
354.855	528.37
354.925	558.22
354.995	491.63
355.065	512.3
355.134	539.85
355.204	523.78
355.274	546.74
355.344	643.17
355.414	606.43
355.483	592.66
355.553	640.87
355.623	629.39
355.693	631.69
355.762	613.32
355.832	666.13
355.902	744.19
355.971	656.95
356.041	771.75
356.111	656.95
356.18	698.27
356.25	695.98
356.319	744.19
356.389	718.94
356.459	748.79
356.528	760.27
356.598	735.01
356.667	783.23
356.737	815.37
356.806	863.59
356.876	822.26
356.945	865.88
357.015	893.43
357.084	950.83
357.154	925.58
357.223	946.24
357.292	1022.01
357.362	948.54
357.431	1097.78
357.501	1093.19
357.57	1100.08
357.639	1164.36
357.709	1136.81
357.778	1180.44
357.847	1228.65
357.917	1276.87
357.986	1240.13
358.055	1309.01
358.124	1341.16
358.194	1465.14
358.263	1426.11
358.332	1389.37
358.401	1492.69
358.471	1513.36
358.54	1478.92
358.609	1481.21
358.678	1706.22
358.747	1818.73
358.816	1777.4
358.886	1880.72
358.955	1926.64
359.024	1901.38
359.093	1926.64
359.162	2011.59
359.231	2144.76
359.3	2020.78
359.369	2271.04
359.438	2300.89
359.507	2376.66
359.576	2479.98
359.645	2473.09
359.714	2541.97
359.783	2677.43
359.852	2737.13
359.921	2858.82
359.99	2982.8
360.059	3196.33
360.128	3228.48
360.197	3161.89
360.266	3547.62
360.334	3522.37
360.403	3492.52
360.472	3807.07
360.541	3974.68
360.61	3970.09
360.679	4211.17
360.747	4360.41
360.816	4606.08
360.885	4656.59
360.954	4870.12
361.022	5001
361.091	5216.82
361.16	5432.65
361.228	5568.11
361.297	5903.33
361.366	6190.33
361.434	6252.32
361.503	6631.16
361.572	6780.4
361.64	7122.51
361.709	7244.2
361.778	7540.38
361.846	8112.09
361.915	8203.93
361.983	8656.24
362.052	8945.54
362.12	9351.93
362.189	9544.8
362.257	10077.47
362.326	10162.43
362.394	10385.14
362.463	10908.63
362.531	11234.66
362.6	11317.32
362.668	11686.98
362.737	11843.1
362.805	12348.23
362.873	12598.49
362.942	12874.01
363.01	13248.26
363.079	13721.24
363.147	14015.13
363.215	14579.95
363.284	14419.23
363.352	15406.51
363.42	15316.97
363.488	15803.72
363.557	16366.24
363.625	16689.98
363.693	16857.59
363.761	17413.22
363.83	18088.25
363.898	18062.99
363.966	18338.52
364.034	18712.76
364.102	19045.69
364.171	19277.58
364.239	19943.43
364.307	20613.86
364.375	21013.37
364.443	21435.83
364.511	21961.62
364.579	22643.53
364.647	23139.47
364.715	24478.04
364.783	24946.43
364.851	25492.88
364.919	26487.05
364.987	26969.21
365.055	28046.04
365.123	28661.37
365.191	29306.55
365.259	30071.12
365.327	30679.57
365.395	31473.99
365.463	31643.89
365.531	32293.66
365.599	32716.13
365.667	33453.15
365.735	33854.95
365.802	34376.14
365.87	35058.06
365.938	35475.93
366.006	35785.89
366.074	35843.29
366.142	36697.41
366.209	37519.38
366.277	37567.59
366.345	38003.84
366.413	38545.69
366.48	39156.43
366.548	39365.37
366.616	40102.39
366.683	40609.81
366.751	40903.7
366.819	41365.19
366.886	41624.64
366.954	41296.31
367.022	41562.65
367.089	41806.03
367.157	41964.45
367.224	42377.73
367.292	42522.38
367.36	42637.18
367.427	42520.09
367.495	42419.06
367.562	42676.22
367.63	42671.62
367.697	43564.77
367.765	44285.72
367.832	44115.81
367.9	43982.65
367.967	44591.09
368.034	44616.34
368.102	45321.22
368.169	45810.27
368.237	46055.94
368.304	45826.34
368.371	46092.68
368.439	46526.62
368.506	46854.95
368.573	46875.62
368.641	47063.89
368.708	47155.73
368.775	47300.38
368.843	47633.3
368.91	48306.03
368.977	48028.21
369.044	48537.93
369.112	48480.53
369.179	49318.57
369.246	49066.01
369.313	49341.53
369.38	49196.88
369.448	49584.91
369.515	49518.32
369.582	49727.26
369.649	49887.98
369.716	50526.27
369.783	50239.27
369.85	50149.73
369.917	50645.67
369.984	50790.31
370.052	50994.66
370.119	50951.03
370.186	50980.88
370.253	51247.22
370.32	51176.04
370.387	51293.14
370.454	51637.54
370.521	51456.16
370.587	51185.23
370.654	51373.5
370.721	51428.6
370.788	50833.94
370.855	50994.66
370.922	51088.8
370.989	50778.83
371.056	50402.29
371.123	50459.69
371.189	49878.8
371.256	49359.9
371.323	48921.36
371.39	47842.24
371.457	47318.75
371.523	46795.26
371.59	46030.69
371.657	45259.23
371.724	44705.89
371.79	43218.07
371.857	42478.76
371.924	41087.38
371.991	39718.96
372.057	38123.23
372.124	36662.97
372.191	35131.53
372.257	33834.28
372.324	32686.28
372.39	30410.93
372.457	28858.83
372.524	27393.98
372.59	25731.67
372.657	23679.03
372.723	22517.25
372.79	21130.46
372.856	19690.86
372.923	18437.24
372.989	17208.88
373.056	15861.12
373.122	14777.4
373.189	13562.82
373.255	12642.12
373.322	11618.1
373.388	10803.01
373.454	10150.95
373.521	9358.82
373.587	8527.67
373.654	7942.18
373.72	7184.5
373.786	6771.22
373.853	6119.15
373.919	5804.6
373.985	5432.65
374.052	4865.53
374.118	4539.5
374.184	4135.4
374.25	3997.64
374.317	3701.45
374.383	3481.04
374.449	3207.81
374.515	3125.16
374.581	2854.23
374.648	2610.85
374.714	2413.39
374.78	2344.51
374.846	2147.06
374.912	1970.26
374.978	1912.86
375.044	1795.77
375.11	1770.51
375.177	1680.97
375.243	1566.17
375.309	1449.07
375.375	1396.26
375.441	1318.2
375.507	1366.41
375.573	1194.21
375.639	1189.62
375.705	1127.63
375.771	1175.84
375.837	1157.48
375.903	1067.93
375.968	1074.82
376.034	886.55
376.1	957.72
376.166	980.68
376.232	888.84
376.298	852.11
376.364	817.67
376.43	774.04
376.495	753.38
376.561	780.93
376.627	689.09
376.693	746.49
376.759	691.39
376.824	718.94
376.89	682.2
376.956	718.94
377.022	654.65
377.087	645.47
377.153	645.47
377.219	645.47
377.284	613.32
377.35	613.32
377.416	608.73
377.481	521.48
377.547	571.99
377.613	638.58
377.678	597.25
377.744	512.3
377.809	555.92
377.875	549.03
377.94	611.03
378.006	526.07
378.071	551.33
378.137	496.23
378.202	468.67
378.268	468.67
378.333	516.89
378.399	498.52
378.464	544.44
378.53	526.07
378.595	507.71
378.661	470.97
378.726	420.46
378.791	503.11
378.857	516.89
378.922	507.71
378.987	438.82
379.053	519.19
379.118	482.45
379.183	521.48
379.249	425.05
379.314	519.19
379.379	367.65
379.444	454.9
379.51	510
379.575	383.72
379.64	468.67
379.705	526.07
379.771	477.86
379.836	487.04
379.901	422.75
379.966	498.52
380.031	415.86
380.096	470.97
380.161	457.19
380.227	457.19
380.292	415.86
380.357	448.01
380.422	507.71
380.487	408.98
380.552	464.08
380.617	397.5
380.682	464.08
380.747	434.23
380.812	399.79
380.877	427.34
380.942	406.68
381.007	408.98
381.072	457.19
381.137	399.79
381.202	464.08
381.266	443.42
381.331	441.12
381.396	395.2
381.461	523.78
381.526	459.49
381.591	429.64
381.656	429.64
381.72	406.68
381.785	425.05
381.85	365.35
381.915	445.71
381.979	395.2
382.044	415.86
382.109	369.94
382.174	436.53
382.238	418.16
382.303	425.05
382.368	415.86
382.432	516.89
382.497	441.12
382.562	381.42
382.626	406.68
382.691	402.09
382.756	411.27
382.82	392.9
382.885	386.02
382.949	434.23
383.014	464.08
383.078	454.9
383.143	441.12
383.208	328.62
383.272	434.23
383.337	445.71
383.401	404.38
383.465	429.64
383.53	445.71
383.594	383.72
383.659	454.9
383.723	406.68
383.788	408.98
383.852	372.24
383.916	422.75
383.981	418.16
384.045	470.97
384.109	454.9
384.174	386.02
384.238	438.82
384.302	353.87
384.367	420.46
384.431	477.86
384.495	402.09
384.56	349.28
384.624	376.83
384.688	399.79
384.752	365.35
384.816	381.42
384.881	365.35
384.945	443.42
385.009	344.69
385.073	422.75
385.137	418.16
385.201	441.12
385.265	470.97
385.33	395.2
385.394	461.78
385.458	473.26
385.522	420.46
385.586	438.82
385.65	429.64
385.714	388.31
385.778	408.98
385.842	399.79
385.906	413.57
385.97	408.98
386.034	406.68
386.098	404.38
386.162	363.06
386.226	438.82
386.29	376.83
386.354	420.46
386.417	360.76
386.481	408.98
386.545	399.79
386.609	411.27
386.673	404.38
386.737	374.54
386.8	395.2
386.864	445.71
386.928	372.24
386.992	438.82
387.056	413.57
387.119	420.46
387.183	367.65
387.247	441.12
387.31	413.57
387.374	461.78
387.438	399.79
387.502	415.86
387.565	388.31
387.629	374.54
387.692	434.23
387.756	358.46
387.82	429.64
387.883	429.64
387.947	422.75
388.01	429.64
388.074	411.27
388.138	422.75
388.201	427.34
388.265	374.54
388.328	358.46
388.392	372.24
388.455	374.54
388.519	376.83
388.582	436.53
388.645	434.23
388.709	381.42
388.772	386.02
388.836	402.09
388.899	422.75
388.962	351.58
389.026	404.38
389.089	425.05
389.153	349.28
389.216	351.58
389.279	466.38
389.343	470.97
389.406	342.39
389.469	342.39
389.532	369.94
389.596	422.75
389.659	360.76
389.722	360.76
389.785	415.86
389.848	388.31
389.912	369.94
389.975	452.6
390.038	346.98
390.101	411.27
390.164	429.64
390.227	448.01
390.291	356.17
390.354	422.75
390.417	399.79
390.48	422.75
390.543	441.12
390.606	413.57
390.669	365.35
390.732	376.83
390.795	324.02
390.858	402.09
390.921	360.76
390.984	349.28
391.047	369.94
391.11	434.23
391.173	450.3
391.236	461.78
391.299	461.78
391.362	379.13
391.424	383.72
391.487	374.54
391.55	374.54
391.613	342.39
391.676	397.5
391.739	344.69
391.802	413.57
391.864	408.98
391.927	425.05
391.99	346.98
392.053	418.16
392.115	314.84
392.178	386.02
392.241	415.86
392.304	358.46
392.366	422.75
392.429	392.9
392.492	369.94
392.554	388.31
392.617	434.23
392.68	379.13
392.742	386.02
392.805	310.25
392.867	438.82
392.93	429.64
392.992	475.56
393.055	374.54
393.118	413.57
393.18	422.75
393.243	363.06
393.305	408.98
393.368	427.34
393.43	415.86
393.493	379.13
393.555	372.24
393.618	390.61
393.68	395.2
393.742	406.68
393.805	448.01
393.867	395.2
393.93	422.75
393.992	374.54
394.054	333.21
394.117	404.38
394.179	438.82
394.241	365.35
394.304	372.24
394.366	397.5
394.428	452.6
394.49	408.98
394.553	335.5
394.615	413.57
394.677	411.27
394.739	392.9
394.802	418.16
394.864	372.24
394.926	351.58
394.988	418.16
395.05	358.46
395.112	353.87
395.174	413.57
395.237	287.29
395.299	367.65
395.361	388.31
395.423	386.02
395.485	369.94
395.547	397.5
395.609	328.62
395.671	383.72
395.733	356.17
395.795	392.9
395.857	369.94
395.919	390.61
395.981	431.94
396.043	358.46
396.105	413.57
396.167	402.09
396.229	367.65
396.291	319.43
396.352	333.21
396.414	383.72
396.476	418.16
396.538	310.25
396.6	358.46
396.662	466.38
396.724	376.83
396.785	422.75
396.847	404.38
396.909	434.23
396.971	363.06
397.032	383.72
397.094	466.38
397.156	415.86
397.218	392.9
397.279	441.12
397.341	390.61
397.403	358.46
397.464	365.35
397.526	454.9
397.588	406.68
397.649	427.34
397.711	365.35
397.772	390.61
397.834	349.28
397.896	310.25
397.957	372.24
398.019	303.36
398.08	353.87
398.142	379.13
398.203	408.98
398.265	395.2
398.326	411.27
398.388	344.69
398.449	392.9
398.511	344.69
398.572	443.42
398.633	399.79
398.695	427.34
398.756	418.16
398.818	390.61
398.879	415.86
398.94	413.57
399.002	312.54
399.063	358.46
399.124	427.34
399.186	365.35
399.247	314.84
399.308	360.76
399.369	425.05
399.431	376.83
399.492	427.34
399.553	402.09
399.614	438.82
399.676	420.46
399.737	425.05
399.798	399.79
399.859	395.2
399.92	353.87
399.981	367.65
400.042	369.94
400.104	363.06
400.165	351.58
400.226	390.61
400.287	392.9
400.348	365.35
400.409	413.57
400.47	420.46
400.531	381.42
400.592	431.94
400.653	418.16
400.714	328.62
400.775	404.38
400.836	344.69
400.897	383.72
400.958	326.32
401.019	404.38
401.08	411.27
401.141	386.02
401.201	427.34
401.262	317.14
401.323	392.9
401.384	376.83
401.445	333.21
401.506	395.2
401.567	399.79
401.627	395.2
401.688	365.35
401.749	337.8
401.81	342.39
401.87	376.83
401.931	379.13
401.992	303.36
402.053	422.75
402.113	443.42
402.174	314.84
402.235	397.5
402.295	337.8
402.356	374.54
402.417	406.68
402.477	392.9
402.538	365.35
402.598	431.94
402.659	326.32
402.719	411.27
402.78	390.61
402.841	381.42
402.901	356.17
402.962	284.99
403.022	372.24
403.083	376.83
403.143	367.65
403.204	399.79
403.264	310.25
403.324	386.02
403.385	425.05
403.445	406.68
403.506	386.02
403.566	413.57
403.627	392.9
403.687	429.64
403.747	379.13
403.808	369.94
403.868	379.13
403.928	386.02
403.989	358.46
404.049	379.13
404.109	374.54
404.169	425.05
404.23	397.5
404.29	301.06
404.35	397.5
404.41	372.24
404.47	268.92
404.531	379.13
404.591	326.32
404.651	351.58
404.711	427.34
404.771	365.35
404.831	379.13
404.892	376.83
404.952	411.27
405.012	381.42
405.072	441.12
405.132	466.38
405.192	420.46
405.252	404.38
405.312	358.46
405.372	406.68
405.432	390.61
405.492	413.57
405.552	360.76
405.612	369.94
405.672	333.21
405.732	335.5
405.792	346.98
405.852	415.86
405.912	379.13
405.971	415.86
406.031	427.34
406.091	386.02
406.151	314.84
406.211	356.17
406.271	379.13
406.33	418.16
406.39	388.31
406.45	360.76
406.51	303.36
406.57	369.94
406.629	408.98
406.689	319.43
406.749	402.09
406.808	415.86
406.868	369.94
406.928	390.61
406.988	312.54
407.047	372.24
407.107	411.27
407.166	351.58
407.226	326.32
407.286	392.9
407.345	418.16
407.405	349.28
407.464	369.94
407.524	358.46
407.584	349.28
407.643	390.61
407.703	383.72
407.762	333.21
407.822	374.54
407.881	461.78
407.941	408.98
408	372.24
408.059	365.35
408.119	445.71
408.178	383.72
408.238	358.46
408.297	358.46
408.356	381.42
408.416	376.83
408.475	395.2
408.535	379.13
408.594	342.39
408.653	427.34
408.712	392.9
408.772	438.82
408.831	356.17
408.89	388.31
408.95	445.71
409.009	418.16
409.068	395.2
409.127	376.83
409.186	438.82
409.246	381.42
409.305	367.65
409.364	365.35
409.423	333.21
409.482	431.94
409.541	408.98
409.6	356.17
409.66	358.46
409.719	379.13
409.778	379.13
409.837	390.61
409.896	386.02
409.955	411.27
410.014	310.25
410.073	429.64
410.132	330.91
410.191	365.35
410.25	386.02
410.309	367.65
410.368	321.73
410.427	365.35
410.486	312.54
410.545	383.72
410.603	314.84
410.662	452.6
410.721	353.87
410.78	397.5
410.839	312.54
410.898	374.54
410.957	369.94
411.015	353.87
411.074	392.9
411.133	392.9
411.192	358.46
411.25	402.09
411.309	367.65
411.368	418.16
411.427	335.5
411.485	379.13
411.544	353.87
411.603	425.05
411.661	353.87
411.72	372.24
411.779	388.31
411.837	399.79
411.896	383.72
411.955	376.83
412.013	386.02
412.072	360.76
412.13	404.38
412.189	349.28
412.247	415.86
412.306	346.98
412.364	296.47
412.423	356.17
412.481	402.09
412.54	342.39
412.598	381.42
412.657	411.27
412.715	321.73
412.774	340.1
412.832	379.13
412.891	390.61
412.949	353.87
413.007	379.13
413.066	379.13
413.124	360.76
413.182	386.02
413.241	441.12
413.299	374.54
413.357	420.46
413.416	360.76
413.474	278.1
413.532	425.05
413.59	399.79
413.649	441.12
413.707	356.17
413.765	379.13
413.823	351.58
413.881	376.83
413.94	379.13
413.998	441.12
414.056	365.35
414.114	328.62
414.172	346.98
414.23	411.27
414.288	379.13
414.347	399.79
414.405	427.34
414.463	386.02
414.521	367.65
414.579	383.72
414.637	381.42
414.695	376.83
414.753	365.35
414.811	337.8
414.869	390.61
414.927	395.2
414.985	402.09
415.043	353.87
415.101	413.57
415.158	344.69
415.216	397.5
415.274	376.83
415.332	390.61
415.39	346.98
415.448	418.16
415.506	397.5
415.563	365.35
415.621	367.65
415.679	395.2
415.737	386.02
415.795	346.98
415.852	340.1
415.91	402.09
415.968	342.39
416.026	379.13
416.083	376.83
416.141	337.8
416.199	445.71
416.256	406.68
416.314	360.76
416.372	360.76
416.429	404.38
416.487	399.79
416.544	379.13
416.602	406.68
416.66	402.09
416.717	346.98
416.775	427.34
416.832	379.13
416.89	383.72
416.947	395.2
417.005	390.61
417.062	381.42
417.12	360.76
417.177	399.79
417.235	383.72
417.292	303.36
417.35	408.98
417.407	392.9
417.464	344.69
417.522	386.02
417.579	374.54
417.637	390.61
417.694	404.38
417.751	390.61
417.809	397.5
417.866	330.91
417.923	386.02
417.981	356.17
418.038	363.06
418.095	328.62
418.152	314.84
418.21	429.64
418.267	344.69
418.324	294.18
418.381	404.38
418.438	333.21
418.496	376.83
418.553	358.46
418.61	379.13
418.667	360.76
418.724	383.72
418.781	429.64
418.838	351.58
418.895	406.68
418.952	369.94
419.01	349.28
419.067	399.79
419.124	369.94
419.181	319.43
419.238	402.09
419.295	374.54
419.352	418.16
419.409	346.98
419.466	367.65
419.523	367.65
419.579	413.57
419.636	381.42
419.693	335.5
419.75	351.58
419.807	360.76
419.864	342.39
419.921	358.46
419.978	335.5
420.034	346.98
420.091	388.31
420.148	291.88
420.205	346.98
420.262	340.1
420.318	335.5
420.375	388.31
420.432	317.14
420.489	367.65
420.545	374.54
420.602	386.02
420.659	360.76
420.715	298.77
420.772	374.54
420.829	353.87
420.885	402.09
420.942	346.98
420.999	376.83
421.055	363.06
421.112	408.98
421.168	386.02
421.225	381.42
421.282	365.35
421.338	386.02
421.395	330.91
421.451	342.39
421.508	340.1
421.564	303.36
421.621	392.9
421.677	356.17
421.734	365.35
421.79	374.54
421.846	346.98
421.903	376.83
421.959	376.83
422.016	381.42
422.072	335.5
422.128	340.1
422.185	351.58
422.241	356.17
422.297	395.2
422.354	312.54
422.41	406.68
422.466	425.05
422.523	321.73
422.579	425.05
422.635	337.8
422.691	383.72
422.748	351.58
422.804	425.05
422.86	346.98
422.916	363.06
422.972	363.06
423.029	351.58
423.085	369.94
423.141	363.06
423.197	372.24
423.253	413.57
423.309	356.17
423.365	397.5
423.421	317.14
423.477	376.83
423.533	379.13
423.589	404.38
423.645	301.06
423.701	395.2
423.757	360.76
423.813	351.58
423.869	365.35
423.925	363.06
423.981	360.76
424.037	402.09
424.093	406.68
424.149	353.87
424.205	381.42
424.261	383.72
424.317	381.42
424.373	388.31
424.428	381.42
424.484	330.91
424.54	367.65
424.596	381.42
424.652	392.9
424.708	427.34
424.763	388.31
424.819	328.62
424.875	326.32
424.931	358.46
424.986	376.83
425.042	356.17
425.098	390.61
425.153	390.61
425.209	342.39
425.265	379.13
425.32	344.69
425.376	326.32
425.432	358.46
425.487	383.72
425.543	351.58
425.598	372.24
425.654	340.1
425.709	346.98
425.765	404.38
425.82	324.02
425.876	408.98
425.932	374.54
425.987	372.24
426.042	333.21
426.098	360.76
426.153	340.1
426.209	381.42
426.264	284.99
426.32	374.54
426.375	392.9
426.43	411.27
426.486	427.34
426.541	406.68
426.597	390.61
426.652	395.2
426.707	386.02
426.763	326.32
426.818	383.72
426.873	353.87
426.928	337.8
426.984	429.64
427.039	358.46
427.094	340.1
427.149	307.95
427.205	390.61
427.26	353.87
427.315	356.17
427.37	383.72
427.425	363.06
427.48	349.28
427.536	390.61
427.591	376.83
427.646	372.24
427.701	386.02
427.756	420.46
427.811	386.02
427.866	346.98
427.921	376.83
427.976	351.58
428.031	353.87
428.086	365.35
428.141	367.65
428.196	406.68
428.251	356.17
428.306	399.79
428.361	358.46
428.416	356.17
428.471	374.54
428.526	413.57
428.581	266.62
428.636	351.58
428.691	363.06
428.745	349.28
428.8	346.98
428.855	383.72
428.91	310.25
428.965	326.32
429.02	429.64
429.074	335.5
429.129	372.24
429.184	367.65
429.239	303.36
429.293	271.22
429.348	294.18
429.403	399.79
429.457	369.94
429.512	374.54
429.567	376.83
429.621	351.58
429.676	321.73
429.731	324.02
429.785	344.69
429.84	365.35
429.895	374.54
429.949	360.76
430.004	429.64
430.058	349.28
430.113	344.69
430.167	340.1
430.222	425.05
430.276	312.54
430.331	388.31
430.385	381.42
430.44	392.9
430.494	324.02
430.549	324.02
430.603	346.98
430.657	344.69
430.712	372.24
430.766	402.09
430.821	415.86
430.875	399.79
430.929	386.02
430.984	399.79
431.038	317.14
431.092	392.9
431.147	335.5
431.201	369.94
431.255	363.06
431.309	353.87
431.364	326.32
431.418	367.65
431.472	429.64
431.526	386.02
431.581	381.42
431.635	381.42
431.689	369.94
431.743	427.34
431.797	452.6
431.851	353.87
431.906	353.87
431.96	369.94
432.014	418.16
432.068	415.86
432.122	390.61
432.176	353.87
432.23	369.94
432.284	399.79
432.338	351.58
432.392	399.79
432.446	386.02
432.5	369.94
432.554	372.24
432.608	383.72
432.662	349.28
432.716	448.01
432.77	365.35
432.824	386.02
432.878	422.75
432.931	379.13
432.985	390.61
433.039	335.5
433.093	406.68
433.147	425.05
433.201	351.58
433.254	307.95
433.308	390.61
433.362	333.21
433.416	406.68
433.47	333.21
433.523	363.06
433.577	353.87
433.631	346.98
433.684	397.5
433.738	305.66
433.792	445.71
433.846	340.1
433.899	330.91
433.953	324.02
434.006	425.05
434.06	344.69
434.114	356.17
434.167	356.17
434.221	356.17
