Data from FLMS155811_14-52-30-316.txt Node
Date: Tue Mar 24 14:52:30 MDT 2020
User: ECEn Student
Spectrometer: FLMS15581
Trigger mode: 0
Integration Time (sec): 8.000000E-2
Scans to average: 1
Electric dark correction enabled: true
Nonlinearity correction enabled: false
Boxcar width: 0
XAxis mode: Wavelengths
Number of Pixels in Spectrum: 2048
>>>>>Begin Spectral Data<<<<<
298.026	-66.01
298.106	-66.01
298.185	-66.01
298.265	-66.01
298.344	-77.49
298.424	-111.93
298.503	-128
298.583	-68.31
298.662	-139.48
298.741	-29.27
298.821	30.42
298.9	-36.16
298.98	12.05
299.059	12.05
299.138	57.97
299.217	-4.02
299.297	74.05
299.376	55.68
299.455	69.45
299.535	124.56
299.614	80.93
299.693	147.52
299.772	124.56
299.852	122.26
299.931	200.33
300.01	191.14
300.089	239.36
300.168	296.76
300.247	276.1
300.327	237.06
300.406	264.62
300.485	331.2
300.564	322.02
300.643	312.83
300.722	296.76
300.801	374.82
300.88	344.98
300.959	303.65
301.038	308.24
301.117	326.61
301.196	347.27
301.275	379.42
301.354	322.02
301.433	324.31
301.512	429.93
301.591	388.6
301.67	349.57
301.749	400.08
301.828	390.9
301.907	452.89
301.985	358.75
302.064	386.3
302.143	342.68
302.222	402.38
302.301	377.12
302.38	395.49
302.458	354.16
302.537	377.12
302.616	342.68
302.695	372.53
302.773	390.9
302.852	374.82
302.931	386.3
303.01	294.46
303.088	278.39
303.167	296.76
303.246	315.13
303.324	372.53
303.403	418.45
303.481	390.9
303.56	395.49
303.639	308.24
303.717	379.42
303.796	278.39
303.874	310.54
303.953	395.49
304.032	301.35
304.11	400.08
304.189	390.9
304.267	356.46
304.346	354.16
304.424	365.64
304.502	315.13
304.581	333.5
304.659	324.31
304.738	333.5
304.816	333.5
304.895	335.79
304.973	381.71
305.051	294.46
305.13	312.83
305.208	349.57
305.286	351.86
305.365	347.27
305.443	395.49
305.521	317.42
305.6	344.98
305.678	381.71
305.756	342.68
305.834	335.79
305.913	379.42
305.991	310.54
306.069	301.35
306.147	317.42
306.225	324.31
306.304	303.65
306.382	370.23
306.46	429.93
306.538	384.01
306.616	404.67
306.694	395.49
306.772	354.16
306.85	342.68
306.929	333.5
307.007	289.87
307.085	340.38
307.163	319.72
307.241	340.38
307.319	317.42
307.397	379.42
307.475	367.94
307.553	374.82
307.631	349.57
307.709	462.07
307.786	418.45
307.864	349.57
307.942	361.05
308.02	441.41
308.098	303.65
308.176	333.5
308.254	331.2
308.332	381.71
308.409	358.75
308.487	335.79
308.565	390.9
308.643	409.26
308.721	384.01
308.798	400.08
308.876	342.68
308.954	315.13
309.032	351.86
309.109	342.68
309.187	328.9
309.265	363.34
309.342	344.98
309.42	363.34
309.498	381.71
309.575	393.19
309.653	384.01
309.731	379.42
309.808	365.64
309.886	347.27
309.963	439.11
310.041	342.68
310.119	418.45
310.196	397.78
310.274	374.82
310.351	370.23
310.429	372.53
310.506	347.27
310.584	395.49
310.661	388.6
310.738	303.65
310.816	365.64
310.893	370.23
310.971	331.2
311.048	358.75
311.126	344.98
311.203	347.27
311.28	344.98
311.358	390.9
311.435	377.12
311.512	384.01
311.59	328.9
311.667	315.13
311.744	379.42
311.821	363.34
311.899	370.23
311.976	370.23
312.053	404.67
312.13	358.75
312.208	420.74
312.285	409.26
312.362	377.12
312.439	386.3
312.516	303.65
312.593	420.74
312.671	402.38
312.748	386.3
312.825	358.75
312.902	312.83
312.979	333.5
313.056	365.64
313.133	322.02
313.21	354.16
313.287	344.98
313.364	363.34
313.441	388.6
313.518	363.34
313.595	384.01
313.672	393.19
313.749	315.13
313.826	409.26
313.903	370.23
313.98	379.42
314.057	374.82
314.134	377.12
314.211	324.31
314.287	386.3
314.364	340.38
314.441	319.72
314.518	331.2
314.595	377.12
314.672	400.08
314.748	413.86
314.825	374.82
314.902	377.12
314.979	372.53
315.055	324.31
315.132	322.02
315.209	429.93
315.286	381.71
315.362	406.97
315.439	395.49
315.516	354.16
315.592	379.42
315.669	365.64
315.746	390.9
315.822	464.37
315.899	402.38
315.975	386.3
316.052	393.19
316.128	388.6
316.205	402.38
316.282	365.64
316.358	381.71
316.435	402.38
316.511	340.38
316.588	388.6
316.664	324.31
316.741	370.23
316.817	374.82
316.893	381.71
316.97	386.3
317.046	363.34
317.123	423.04
317.199	365.64
317.275	310.54
317.352	358.75
317.428	402.38
317.504	404.67
317.581	310.54
317.657	351.86
317.733	363.34
317.81	388.6
317.886	367.94
317.962	411.56
318.038	413.86
318.115	411.56
318.191	377.12
318.267	459.78
318.343	443.7
318.419	427.63
318.496	351.86
318.572	349.57
318.648	436.82
318.724	390.9
318.8	397.78
318.876	386.3
318.952	400.08
319.028	374.82
319.105	384.01
319.181	404.67
319.257	404.67
319.333	351.86
319.409	434.52
319.485	397.78
319.561	363.34
319.637	326.61
319.713	354.16
319.789	404.67
319.865	377.12
319.94	393.19
320.016	370.23
320.092	397.78
320.168	390.9
320.244	299.06
320.32	374.82
320.396	367.94
320.472	390.9
320.547	333.5
320.623	393.19
320.699	388.6
320.775	404.67
320.851	416.15
320.926	349.57
321.002	471.26
321.078	409.26
321.154	455.18
321.229	349.57
321.305	395.49
321.381	395.49
321.456	443.7
321.532	361.05
321.608	400.08
321.683	363.34
321.759	390.9
321.835	344.98
321.91	349.57
321.986	388.6
322.061	370.23
322.137	365.64
322.212	434.52
322.288	404.67
322.364	358.75
322.439	390.9
322.515	416.15
322.59	446
322.666	409.26
322.741	395.49
322.816	370.23
322.892	409.26
322.967	425.34
323.043	342.68
323.118	400.08
323.193	372.53
323.269	425.34
323.344	404.67
323.42	395.49
323.495	402.38
323.57	370.23
323.646	395.49
323.721	386.3
323.796	386.3
323.871	439.11
323.947	381.71
324.022	367.94
324.097	441.41
324.172	344.98
324.248	370.23
324.323	384.01
324.398	390.9
324.473	377.12
324.548	384.01
324.623	372.53
324.699	411.56
324.774	384.01
324.849	459.78
324.924	347.27
324.999	351.86
325.074	361.05
325.149	425.34
325.224	418.45
325.299	393.19
325.374	358.75
325.449	354.16
325.524	367.94
325.599	434.52
325.674	420.74
325.749	386.3
325.824	439.11
325.899	436.82
325.974	312.83
326.049	365.64
326.124	446
326.199	365.64
326.273	402.38
326.348	349.57
326.423	374.82
326.498	406.97
326.573	393.19
326.648	361.05
326.722	446
326.797	370.23
326.872	404.67
326.947	287.58
327.021	354.16
327.096	420.74
327.171	395.49
327.245	464.37
327.32	326.61
327.395	439.11
327.47	471.26
327.544	409.26
327.619	374.82
327.693	347.27
327.768	347.27
327.843	450.59
327.917	319.72
327.992	361.05
328.066	384.01
328.141	351.86
328.215	358.75
328.29	370.23
328.364	349.57
328.439	370.23
328.513	427.63
328.588	340.38
328.662	395.49
328.737	331.2
328.811	400.08
328.886	384.01
328.96	400.08
329.035	331.2
329.109	322.02
329.183	384.01
329.258	448.3
329.332	370.23
329.406	381.71
329.481	349.57
329.555	384.01
329.629	452.89
329.704	432.22
329.778	443.7
329.852	354.16
329.926	342.68
330.001	372.53
330.075	427.63
330.149	450.59
330.223	374.82
330.297	418.45
330.372	361.05
330.446	342.68
330.52	395.49
330.594	388.6
330.668	370.23
330.742	386.3
330.816	436.82
330.89	432.22
330.964	381.71
331.038	400.08
331.113	450.59
331.187	443.7
331.261	441.41
331.335	411.56
331.409	416.15
331.483	367.94
331.557	409.26
331.63	358.75
331.704	393.19
331.778	400.08
331.852	363.34
331.926	466.66
332	363.34
332.074	370.23
332.148	397.78
332.222	319.72
332.295	356.46
332.369	402.38
332.443	450.59
332.517	372.53
332.591	434.52
332.665	429.93
332.738	384.01
332.812	331.2
332.886	388.6
332.959	367.94
333.033	411.56
333.107	411.56
333.181	427.63
333.254	409.26
333.328	423.04
333.402	319.72
333.475	406.97
333.549	384.01
333.622	402.38
333.696	331.2
333.77	315.13
333.843	409.26
333.917	397.78
333.99	434.52
334.064	404.67
334.137	390.9
334.211	370.23
334.284	432.22
334.358	409.26
334.431	372.53
334.505	333.5
334.578	367.94
334.652	358.75
334.725	351.86
334.799	443.7
334.872	427.63
334.945	386.3
335.019	446
335.092	312.83
335.165	395.49
335.239	356.46
335.312	409.26
335.385	388.6
335.459	436.82
335.532	326.61
335.605	393.19
335.678	434.52
335.752	413.86
335.825	457.48
335.898	374.82
335.971	374.82
336.045	377.12
336.118	390.9
336.191	462.07
336.264	425.34
336.337	393.19
336.41	464.37
336.483	379.42
336.557	473.55
336.63	312.83
336.703	397.78
336.776	439.11
336.849	409.26
336.922	443.7
336.995	400.08
337.068	409.26
337.141	457.48
337.214	379.42
337.287	404.67
337.36	388.6
337.433	429.93
337.506	379.42
337.579	441.41
337.652	404.67
337.725	418.45
337.797	434.52
337.87	400.08
337.943	418.45
338.016	395.49
338.089	402.38
338.162	354.16
338.235	397.78
338.307	411.56
338.38	390.9
338.453	379.42
338.526	374.82
338.598	390.9
338.671	393.19
338.744	397.78
338.817	432.22
338.889	406.97
338.962	434.52
339.035	397.78
339.107	381.71
339.18	409.26
339.253	423.04
339.325	413.86
339.398	400.08
339.47	406.97
339.543	384.01
339.616	455.18
339.688	409.26
339.761	420.74
339.833	418.45
339.906	319.72
339.978	328.9
340.051	402.38
340.123	411.56
340.196	374.82
340.268	416.15
340.341	379.42
340.413	388.6
340.485	406.97
340.558	347.27
340.63	400.08
340.703	432.22
340.775	386.3
340.847	455.18
340.92	425.34
340.992	384.01
341.064	390.9
341.137	312.83
341.209	384.01
341.281	386.3
341.354	457.48
341.426	457.48
341.498	418.45
341.57	402.38
341.643	418.45
341.715	402.38
341.787	439.11
341.859	480.44
341.931	416.15
342.003	425.34
342.076	411.56
342.148	416.15
342.22	432.22
342.292	390.9
342.364	395.49
342.436	420.74
342.508	372.53
342.58	413.86
342.652	402.38
342.724	409.26
342.796	365.64
342.868	370.23
342.94	349.57
343.012	374.82
343.084	425.34
343.156	411.56
343.228	289.87
343.3	400.08
343.372	429.93
343.444	395.49
343.516	416.15
343.588	425.34
343.66	462.07
343.731	347.27
343.803	372.53
343.875	400.08
343.947	436.82
344.019	413.86
344.09	429.93
344.162	466.66
344.234	328.9
344.306	429.93
344.377	413.86
344.449	379.42
344.521	388.6
344.593	347.27
344.664	365.64
344.736	423.04
344.808	409.26
344.879	413.86
344.951	374.82
345.023	425.34
345.094	395.49
345.166	416.15
345.237	354.16
345.309	434.52
345.38	423.04
345.452	413.86
345.524	427.63
345.595	471.26
345.667	400.08
345.738	381.71
345.81	349.57
345.881	402.38
345.953	395.49
346.024	370.23
346.095	379.42
346.167	358.75
346.238	397.78
346.31	446
346.381	381.71
346.452	413.86
346.524	441.41
346.595	404.67
346.666	374.82
346.738	489.62
346.809	423.04
346.88	409.26
346.952	381.71
347.023	315.13
347.094	395.49
347.165	335.79
347.237	379.42
347.308	420.74
347.379	372.53
347.45	390.9
347.521	388.6
347.593	354.16
347.664	379.42
347.735	374.82
347.806	429.93
347.877	404.67
347.948	351.86
348.019	400.08
348.09	333.5
348.161	443.7
348.233	358.75
348.304	427.63
348.375	393.19
348.446	400.08
348.517	395.49
348.588	400.08
348.659	452.89
348.73	384.01
348.801	393.19
348.871	413.86
348.942	374.82
349.013	423.04
349.084	361.05
349.155	393.19
349.226	450.59
349.297	416.15
349.368	446
349.439	473.55
349.509	498.81
349.58	455.18
349.651	381.71
349.722	374.82
349.793	434.52
349.863	386.3
349.934	443.7
350.005	361.05
350.076	406.97
350.146	363.34
350.217	423.04
350.288	395.49
350.358	372.53
350.429	409.26
350.5	420.74
350.57	423.04
350.641	473.55
350.711	420.74
350.782	420.74
350.853	384.01
350.923	464.37
350.994	397.78
351.064	420.74
351.135	475.85
351.205	374.82
351.276	425.34
351.346	423.04
351.417	388.6
351.487	416.15
351.558	457.48
351.628	390.9
351.699	468.96
351.769	436.82
351.84	436.82
351.91	365.64
351.98	397.78
352.051	432.22
352.121	434.52
352.191	439.11
352.262	420.74
352.332	404.67
352.402	409.26
352.473	400.08
352.543	434.52
352.613	347.27
352.683	390.9
352.754	406.97
352.824	425.34
352.894	404.67
352.964	425.34
353.035	393.19
353.105	377.12
353.175	413.86
353.245	436.82
353.315	418.45
353.385	439.11
353.455	358.75
353.526	413.86
353.596	388.6
353.666	406.97
353.736	452.89
353.806	404.67
353.876	390.9
353.946	335.79
354.016	390.9
354.086	427.63
354.156	381.71
354.226	374.82
354.296	494.22
354.366	397.78
354.436	342.68
354.506	420.74
354.576	351.86
354.645	411.56
354.715	436.82
354.785	409.26
354.855	434.52
354.925	441.41
354.995	434.52
355.065	406.97
355.134	434.52
355.204	390.9
355.274	418.45
355.344	390.9
355.414	459.78
355.483	432.22
355.553	416.15
355.623	347.27
355.693	429.93
355.762	372.53
355.832	409.26
355.902	358.75
355.971	452.89
356.041	429.93
356.111	448.3
356.18	406.97
356.25	473.55
356.319	331.2
356.389	406.97
356.459	397.78
356.528	377.12
356.598	402.38
356.667	400.08
356.737	459.78
356.806	386.3
356.876	432.22
356.945	416.15
357.015	434.52
357.084	432.22
357.154	441.41
357.223	432.22
357.292	450.59
357.362	418.45
357.431	432.22
357.501	432.22
357.57	400.08
357.639	367.94
357.709	466.66
357.778	409.26
357.847	432.22
357.917	411.56
357.986	386.3
358.055	402.38
358.124	443.7
358.194	441.41
358.263	485.03
358.332	423.04
358.401	452.89
358.471	427.63
358.54	446
358.609	384.01
358.678	455.18
358.747	418.45
358.816	411.56
358.886	471.26
358.955	356.46
359.024	402.38
359.093	384.01
359.162	429.93
359.231	367.94
359.3	420.74
359.369	411.56
359.438	448.3
359.507	406.97
359.576	459.78
359.645	443.7
359.714	503.4
359.783	448.3
359.852	427.63
359.921	473.55
359.99	436.82
360.059	443.7
360.128	351.86
360.197	393.19
360.266	411.56
360.334	475.85
360.403	450.59
360.472	436.82
360.541	411.56
360.61	416.15
360.679	429.93
360.747	395.49
360.816	439.11
360.885	429.93
360.954	441.41
361.022	397.78
361.091	441.41
361.16	406.97
361.228	425.34
361.297	468.96
361.366	478.14
361.434	418.45
361.503	519.47
361.572	432.22
361.64	395.49
361.709	427.63
361.778	416.15
361.846	471.26
361.915	533.25
361.983	427.63
362.052	448.3
362.12	528.66
362.189	427.63
362.257	450.59
362.326	434.52
362.394	457.48
362.463	448.3
362.531	443.7
362.6	432.22
362.668	418.45
362.737	466.66
362.805	494.22
362.873	390.9
362.942	597.54
363.01	544.73
363.079	448.3
363.147	480.44
363.215	549.32
363.284	482.74
363.352	491.92
363.42	535.54
363.488	514.88
363.557	452.89
363.625	517.18
363.693	475.85
363.761	478.14
363.83	524.06
363.898	547.02
363.966	514.88
364.034	558.5
364.102	496.51
364.171	510.29
364.239	572.28
364.307	588.35
364.375	521.77
364.443	579.17
364.511	544.73
364.579	583.76
364.647	537.84
364.715	563.1
364.783	574.58
364.851	588.35
364.919	627.38
364.987	609.02
365.055	652.64
365.123	631.98
365.191	698.56
365.259	666.42
365.327	693.97
365.395	693.97
365.463	733
365.531	735.3
365.599	719.22
365.667	664.12
365.735	710.04
365.802	815.66
365.87	758.26
365.938	822.55
366.006	758.26
366.074	794.99
366.142	811.07
366.209	852.39
366.277	815.66
366.345	801.88
366.413	953.42
366.48	854.69
366.548	980.97
366.616	866.17
366.683	923.57
366.751	893.72
366.819	1024.59
366.886	1022.3
366.954	1006.23
367.022	1104.95
367.089	1093.47
367.157	1095.77
367.224	1079.7
367.292	1114.14
367.36	1212.87
367.427	1231.24
367.495	1318.48
367.562	1320.78
367.63	1369
367.697	1263.38
367.765	1373.59
367.832	1394.25
367.9	1375.88
367.967	1470.02
368.034	1499.87
368.102	1545.79
368.169	1518.24
368.237	1481.5
368.304	1598.6
368.371	1690.44
368.439	1644.52
368.506	1773.09
368.573	1759.32
368.641	1855.75
368.708	1828.2
368.775	1851.16
368.843	2016.47
368.91	2023.36
368.977	1984.33
369.044	2048.61
369.112	2055.5
369.179	2165.71
369.246	2209.34
369.313	2287.4
369.38	2301.18
369.448	2390.72
369.515	2510.11
369.582	2556.03
369.649	2585.88
369.716	2716.75
369.783	2723.64
369.85	2833.85
369.917	2962.43
369.984	2872.88
370.052	2950.95
370.119	2927.99
370.186	3212.69
370.253	3130.03
370.32	3226.47
370.387	3320.6
370.454	3410.15
370.521	3465.25
370.587	3446.88
370.654	3573.16
370.721	3639.75
370.788	3710.93
370.855	3899.2
370.922	3995.63
370.989	4027.77
371.056	4105.84
371.123	4206.86
371.189	4319.37
371.256	4427.28
371.323	4535.19
371.39	4477.79
371.457	4643.11
371.523	4610.96
371.59	4845.15
371.657	4966.84
371.724	5081.64
371.79	4989.8
371.857	5221.7
371.924	5412.27
371.991	5426.04
372.057	5612.02
372.124	5625.8
372.191	5683.2
372.257	5947.24
372.324	6073.52
372.39	6103.37
372.457	6220.46
372.524	6385.78
372.59	6528.13
372.657	6539.61
372.723	6675.07
372.79	6824.31
372.856	7026.36
372.923	7166.42
372.989	7292.7
373.056	7391.43
373.122	7315.66
373.189	7646.29
373.255	7935.58
373.322	8123.86
373.388	7997.58
373.454	8268.5
373.521	8461.37
373.587	8725.41
373.654	8769.03
373.72	8828.73
373.786	8945.83
373.853	9244.31
373.919	9331.56
373.985	9577.23
374.052	9529.01
374.118	10034.14
374.184	10068.58
374.25	10185.67
374.317	10238.48
374.383	10619.62
374.449	10798.71
374.515	11241.84
374.581	11003.05
374.648	11354.34
374.714	11352.05
374.78	11616.09
374.846	11852.58
374.912	12091.36
374.978	12426.58
375.044	12536.79
375.11	12575.82
375.177	13048.8
375.243	13370.24
375.309	13772.04
375.375	13689.38
375.441	13877.66
375.507	14242.72
375.573	14513.65
375.639	14596.31
375.705	14853.46
375.771	15122.09
375.837	15188.68
375.903	15310.37
375.968	15668.54
376.034	16095.6
376.1	16469.85
376.166	16244.84
376.232	16853.28
376.298	17036.96
376.364	17085.18
376.43	17486.98
376.495	17728.06
376.561	18148.23
376.627	18212.52
376.693	18515.59
376.759	18928.88
376.824	19245.73
376.89	19902.38
376.956	19557.98
377.022	20334.03
377.087	20669.25
377.153	20887.37
377.219	21206.52
377.284	21135.34
377.35	21890.73
377.416	21649.65
377.481	22607.08
377.547	22542.8
377.613	22923.93
377.678	23247.67
377.744	23571.41
377.809	24065.05
377.875	24161.48
377.94	24590.84
378.006	25068.41
378.071	25337.04
378.137	25656.18
378.202	25970.74
378.268	26305.96
378.333	26815.67
378.399	27040.68
378.464	27472.33
378.53	27903.98
378.595	28388.44
378.661	28707.58
378.726	28939.48
378.791	29582.36
378.857	29945.13
378.922	30528.32
378.987	30985.22
379.053	31368.66
379.118	31841.63
379.183	32665.9
379.249	32792.18
379.314	33258.27
379.379	33547.57
379.444	34036.62
379.51	34695.57
379.575	35072.12
379.64	35060.64
379.705	35627.75
379.771	36144.36
379.836	36702.29
379.901	37212
379.966	37593.14
380.031	38330.16
380.096	38704.41
380.161	39377.14
380.227	39948.84
380.292	40258.81
380.357	40986.64
380.422	40961.38
380.487	42171.38
380.552	41932.6
380.617	42805.08
380.682	43071.42
380.747	43721.19
380.812	44568.41
380.877	44536.27
380.942	44839.34
381.007	45147.01
381.072	46005.72
381.137	46024.09
381.202	46908.05
381.266	47298.37
381.331	47153.72
381.396	47702.47
381.461	48088.2
381.526	48173.15
381.591	48538.22
381.656	48662.2
381.72	49346.41
381.785	49690.81
381.85	49952.56
381.915	50113.28
381.979	50097.21
382.044	50356.66
382.109	50492.12
382.174	50544.93
382.238	51033.98
382.303	50919.18
382.368	51146.48
382.432	50997.24
382.497	51502.36
382.562	51529.92
382.626	51867.43
382.691	51527.62
382.756	51135
382.82	51258.99
382.885	51529.92
382.949	51392.16
383.014	51089.08
383.078	51157.96
383.143	50949.03
383.208	50992.65
383.272	50561
383.337	50184.45
383.401	49690.81
383.465	49775.76
383.53	49452.03
383.594	49093.85
383.659	48832.1
383.723	48448.67
383.788	48494.59
383.852	47984.88
383.916	47787.42
383.981	47564.71
384.045	46770.29
384.109	46357.01
384.174	45661.32
384.238	45085.02
384.302	44584.49
384.367	44568.41
384.431	43966.86
384.495	42974.98
384.56	42417.05
384.624	41964.74
384.688	41895.86
384.752	40887.91
384.816	40318.5
384.881	39797.31
384.945	38950.08
385.009	38314.09
385.073	37554.11
385.137	37453.08
385.201	36553.05
385.265	35992.82
385.33	35650.71
385.394	35216.77
385.458	34491.23
385.522	33660.07
385.586	33448.84
385.65	33304.19
385.714	32583.25
385.778	32050.57
385.842	31139.06
385.906	30794.65
385.97	30321.68
386.034	29598.43
386.098	29446.9
386.162	28482.57
386.226	28282.82
386.29	27444.78
386.354	27091.19
386.417	26873.07
386.481	26188.86
386.545	26035.03
386.609	25247.49
386.673	25281.93
386.737	24889.32
386.8	24101.79
386.864	23807.9
386.928	23640.29
386.992	23109.91
387.056	22951.49
387.119	22731.07
387.183	21904.5
387.247	22134.11
387.31	21573.88
387.374	21146.82
387.438	20733.54
387.502	20705.99
387.565	20242.19
387.629	20136.58
387.692	20047.03
387.756	19583.24
387.82	19059.75
387.883	18993.16
387.947	18292.88
388.01	18494.93
388.074	18391.61
388.138	17670.66
388.201	17482.39
388.265	17397.44
388.328	17080.59
388.392	16694.86
388.455	16885.43
388.519	16630.57
388.582	16178.26
388.645	16520.36
388.709	16051.98
388.772	15927.99
388.836	15542.26
388.899	15542.26
388.962	15422.87
389.026	15317.25
389.089	15461.9
389.153	14910.86
389.216	14796.06
389.279	14502.17
389.343	14430.99
389.406	14256.5
389.469	14118.74
389.532	14006.23
389.596	14020.01
389.659	13657.24
389.722	13565.4
389.785	13129.16
389.848	13592.95
389.912	13544.73
389.975	13110.79
390.038	12954.66
390.101	12810.01
390.164	12858.23
390.227	13053.39
390.291	12731.95
390.354	12690.62
390.417	12621.74
390.48	12481.68
390.543	12298
390.606	12160.24
390.669	12199.27
390.732	11985.74
390.795	12017.89
390.858	11825.02
390.921	11714.81
390.984	11710.22
391.047	11834.21
391.11	11496.69
391.173	11248.72
391.236	11349.75
391.299	11471.44
391.362	11120.15
391.424	11198.21
391.487	10918.1
391.55	11170.66
391.613	10856.11
391.676	10977.8
391.739	10966.32
391.802	10688.5
391.864	10778.04
391.927	10571.4
391.99	10484.15
392.053	10263.74
392.115	10367.06
392.178	10169.6
392.241	10323.43
392.304	9985.92
392.366	9921.63
392.429	9843.57
392.492	9868.82
392.554	9698.92
392.617	9620.85
392.68	9423.4
392.742	9613.97
392.805	9434.88
392.867	9175.43
392.93	9269.56
392.992	9152.47
393.055	9104.25
393.118	9023.89
393.18	8909.09
393.243	8973.38
393.305	8695.56
393.368	8417.74
393.43	8319.02
393.493	8449.89
393.555	8257.02
393.618	8240.95
393.68	8066.46
393.742	8089.42
393.805	7944.77
393.867	7742.72
393.93	7591.18
393.992	7536.08
394.054	7643.99
394.117	7467.2
394.179	7421.28
394.241	7373.06
394.304	7056.21
394.366	6879.42
394.428	6847.27
394.49	6925.34
394.553	6707.22
394.615	6709.51
394.677	6553.39
394.739	6633.75
394.802	6585.53
394.864	6310.01
394.926	6431.7
394.988	6275.57
395.05	6002.34
395.112	6117.14
395.174	5800.29
395.237	5772.74
395.299	5653.35
395.361	5595.95
395.423	5488.04
395.485	5384.72
395.547	5449
395.609	5274.51
395.671	5341.09
395.733	5040.31
395.795	5203.33
395.857	4900.26
395.919	4854.34
395.981	4829.08
396.043	4796.94
396.105	4663.77
396.167	4852.04
396.229	4705.1
396.291	4470.9
396.352	4367.58
396.414	4530.6
396.476	4312.48
396.538	4381.36
396.6	4222.94
396.662	4181.61
396.724	4115.02
396.785	4131.1
396.847	4142.58
396.909	3938.23
396.971	3986.45
397.032	3857.87
397.094	3759.14
397.156	3591.53
397.218	3699.45
397.279	3596.12
397.341	3320.6
397.403	3444.59
397.464	3421.63
397.526	3290.76
397.588	3368.82
397.649	3313.72
397.711	3334.38
397.772	3166.77
397.834	3247.13
397.896	3097.89
397.957	3125.44
398.019	3104.78
398.08	3001.46
398.142	2955.54
398.203	2916.51
398.265	2939.47
398.326	2921.1
398.388	2946.35
398.449	2822.37
398.511	2854.51
398.572	2847.63
398.633	2737.42
398.695	2647.87
398.756	2562.92
398.818	2606.54
398.879	2590.47
398.94	2507.82
399.002	2613.43
399.063	2512.41
399.124	2560.62
399.186	2347.1
399.247	2438.94
399.308	2445.82
399.369	2519.3
399.431	2427.46
399.492	2381.54
399.553	2289.7
399.614	2397.61
399.676	2333.32
399.737	2319.54
399.798	2236.89
399.859	2278.22
399.92	2112.9
399.981	2236.89
400.042	2344.8
400.104	2110.61
400.165	2158.82
400.226	2218.52
400.287	2220.82
400.348	2108.31
400.409	2087.65
400.47	2112.9
400.531	2055.5
400.592	2092.24
400.653	2023.36
400.714	2076.17
400.775	2011.88
400.836	1926.93
400.897	1936.11
400.958	1887.89
401.019	1906.26
401.08	1892.49
401.141	1867.23
401.201	1835.09
401.262	1931.52
401.323	1881.01
401.384	1832.79
401.445	1819.01
401.506	1913.15
401.567	1901.67
401.627	1825.9
401.688	1775.39
401.749	1800.65
401.81	1809.83
401.87	1740.95
401.931	1757.02
401.992	1841.97
402.053	1745.54
402.113	1773.09
402.174	1701.92
402.235	1626.15
402.295	1720.29
402.356	1676.66
402.417	1662.88
402.477	1708.81
402.538	1667.48
402.598	1685.84
402.659	1674.36
402.719	1603.19
402.78	1603.19
402.841	1711.1
402.901	1545.79
402.962	1626.15
403.022	1532.01
403.083	1587.12
403.143	1451.65
403.204	1552.68
403.264	1511.35
403.324	1610.08
403.385	1527.42
403.445	1658.29
403.506	1543.49
403.566	1430.99
403.627	1474.61
403.687	1460.84
403.747	1440.17
403.808	1437.88
403.868	1421.8
403.928	1499.87
403.989	1437.88
404.049	1504.46
404.109	1430.99
404.169	1467.72
404.23	1442.47
404.29	1380.48
404.35	1316.19
404.41	1288.64
404.47	1284.04
404.531	1387.36
404.591	1437.88
404.651	1309.3
404.711	1318.48
404.771	1201.39
404.831	1373.59
404.892	1316.19
404.952	1284.04
405.012	1293.23
405.072	1219.76
405.132	1284.04
405.192	1313.89
405.252	1233.53
405.312	1274.86
405.372	1238.12
405.432	1178.43
405.492	1226.64
405.552	1130.21
405.612	1205.98
405.672	1160.06
405.732	1217.46
405.792	1169.24
405.852	1125.62
405.912	1166.95
405.971	1189.91
406.031	1086.59
406.091	1162.35
406.151	1054.44
406.211	1075.11
406.271	1137.1
406.33	1070.51
406.39	1049.85
406.45	1045.26
406.51	1029.19
406.57	1077.4
406.629	1081.99
406.689	964.9
406.749	1036.07
406.808	1015.41
406.868	1020
406.928	1054.44
406.988	918.98
407.047	967.19
407.107	971.79
407.166	955.71
407.226	921.27
407.286	964.9
407.345	937.35
407.405	921.27
407.464	896.02
407.524	914.39
407.584	978.67
407.643	905.2
407.703	896.02
407.762	898.31
407.822	893.72
407.881	852.39
407.941	861.58
408	843.21
408.059	866.17
408.119	831.73
408.178	778.92
408.238	815.66
408.297	820.25
408.356	831.73
408.416	861.58
408.475	815.66
408.535	861.58
408.594	790.4
408.653	778.92
408.712	806.47
408.772	755.96
408.831	847.8
408.89	772.03
408.95	769.74
409.009	733
409.068	831.73
409.127	772.03
409.186	758.26
409.246	788.11
409.305	765.15
409.364	746.78
409.423	767.44
409.482	687.08
409.541	746.78
409.6	707.74
409.66	758.26
409.719	696.26
409.778	820.25
409.837	721.52
409.896	762.85
409.955	687.08
410.014	687.08
410.073	684.78
410.132	682.49
410.191	671.01
410.25	682.49
410.309	710.04
410.368	682.49
410.427	735.3
410.486	703.15
410.545	703.15
410.603	703.15
410.662	680.19
410.721	712.34
410.78	728.41
410.839	650.34
410.898	682.49
410.957	703.15
411.015	700.86
411.074	675.6
411.133	631.98
411.192	671.01
411.25	627.38
411.309	620.5
411.368	654.94
411.427	636.57
411.485	634.27
411.544	615.9
411.603	567.69
411.661	693.97
411.72	611.31
411.779	661.82
411.837	707.74
411.896	627.38
411.955	645.75
412.013	576.87
412.072	579.17
412.13	551.62
412.189	533.25
412.247	560.8
412.306	645.75
412.364	634.27
412.423	629.68
412.481	574.58
412.54	643.46
412.598	565.39
412.657	611.31
412.715	595.24
412.774	590.65
412.832	583.76
412.891	563.1
412.949	498.81
413.007	572.28
413.066	625.09
413.124	581.46
413.182	551.62
413.241	556.21
413.299	560.8
413.357	620.5
413.416	592.94
413.474	533.25
413.532	604.42
413.59	602.13
413.649	659.53
413.707	563.1
413.765	514.88
413.823	530.95
413.881	540.14
413.94	558.5
413.998	569.98
414.056	542.43
414.114	595.24
414.172	489.62
414.23	521.77
414.288	524.06
414.347	547.02
414.405	503.4
414.463	583.76
414.521	572.28
414.579	510.29
414.637	452.89
414.695	485.03
414.753	494.22
414.811	455.18
414.869	494.22
414.927	569.98
414.985	599.83
415.043	526.36
415.101	503.4
415.158	462.07
415.216	560.8
415.274	597.54
415.332	478.14
415.39	521.77
415.448	528.66
415.506	514.88
415.563	533.25
415.621	551.62
415.679	475.85
415.737	535.54
415.795	542.43
415.852	455.18
415.91	468.96
415.968	553.91
416.026	565.39
416.083	533.25
416.141	503.4
416.199	524.06
416.256	468.96
416.314	535.54
416.372	487.33
416.429	576.87
416.487	436.82
416.544	514.88
416.602	418.45
416.66	459.78
416.717	498.81
416.775	466.66
416.832	496.51
416.89	406.97
416.947	533.25
417.005	482.74
417.062	485.03
417.12	473.55
417.177	482.74
417.235	491.92
417.292	439.11
417.35	485.03
417.407	443.7
417.464	452.89
417.522	503.4
417.579	425.34
417.637	475.85
417.694	468.96
417.751	496.51
417.809	549.32
417.866	528.66
417.923	480.44
417.981	418.45
418.038	482.74
418.095	411.56
418.152	494.22
418.21	514.88
418.267	489.62
418.324	406.97
418.381	498.81
418.438	448.3
418.496	519.47
418.553	510.29
418.61	446
418.667	478.14
418.724	471.26
418.781	466.66
418.838	503.4
418.895	489.62
418.952	413.86
419.01	491.92
419.067	475.85
419.124	462.07
419.181	427.63
419.238	482.74
419.295	448.3
419.352	462.07
419.409	482.74
419.466	452.89
419.523	452.89
419.579	434.52
419.636	436.82
419.693	462.07
419.75	468.96
419.807	468.96
419.864	501.1
419.921	425.34
419.978	468.96
420.034	409.26
420.091	487.33
420.148	475.85
420.205	432.22
420.262	418.45
420.318	434.52
420.375	436.82
420.432	420.74
420.489	473.55
420.545	406.97
420.602	459.78
420.659	466.66
420.715	388.6
420.772	475.85
420.829	413.86
420.885	514.88
420.942	420.74
420.999	436.82
421.055	416.15
421.112	413.86
421.168	473.55
421.225	475.85
421.282	374.82
421.338	464.37
421.395	441.41
421.451	406.97
421.508	397.78
421.564	434.52
421.621	452.89
421.677	473.55
421.734	432.22
421.79	395.49
421.846	450.59
421.903	390.9
421.959	466.66
422.016	432.22
422.072	377.12
422.128	464.37
422.185	448.3
422.241	471.26
422.297	409.26
422.354	432.22
422.41	485.03
422.466	397.78
422.523	413.86
422.579	365.64
422.635	386.3
422.691	397.78
422.748	441.41
422.804	381.71
422.86	411.56
422.916	441.41
422.972	436.82
423.029	418.45
423.085	370.23
423.141	388.6
423.197	386.3
423.253	356.46
423.309	443.7
423.365	427.63
423.421	413.86
423.477	363.34
423.533	374.82
423.589	432.22
423.645	397.78
423.701	395.49
423.757	402.38
423.813	411.56
423.869	381.71
423.925	400.08
423.981	478.14
424.037	434.52
424.093	388.6
424.149	402.38
424.205	393.19
424.261	409.26
424.317	381.71
424.373	432.22
424.428	379.42
424.484	489.62
424.54	457.48
424.596	351.86
424.652	514.88
424.708	367.94
424.763	400.08
424.819	420.74
424.875	423.04
424.931	395.49
424.986	441.41
425.042	370.23
425.098	397.78
425.153	427.63
425.209	413.86
425.265	404.67
425.32	367.94
425.376	441.41
425.432	370.23
425.487	468.96
425.543	436.82
425.598	404.67
425.654	395.49
425.709	358.75
425.765	432.22
425.82	411.56
425.876	491.92
425.932	432.22
425.987	432.22
426.042	395.49
426.098	384.01
426.153	361.05
426.209	349.57
426.264	363.34
426.32	400.08
426.375	370.23
426.43	372.53
426.486	409.26
426.541	416.15
426.597	411.56
426.652	418.45
426.707	402.38
426.763	406.97
426.818	390.9
426.873	393.19
426.928	361.05
426.984	411.56
427.039	386.3
427.094	379.42
427.149	338.09
427.205	404.67
427.26	370.23
427.315	423.04
427.37	354.16
427.425	439.11
427.48	363.34
427.536	340.38
427.591	482.74
427.646	374.82
427.701	420.74
427.756	402.38
427.811	372.53
427.866	393.19
427.921	315.13
427.976	351.86
428.031	365.64
428.086	429.93
428.141	439.11
428.196	455.18
428.251	386.3
428.306	402.38
428.361	356.46
428.416	429.93
428.471	512.58
428.526	386.3
428.581	443.7
428.636	370.23
428.691	397.78
428.745	406.97
428.8	381.71
428.855	354.16
428.91	423.04
428.965	436.82
429.02	381.71
429.074	429.93
429.129	425.34
429.184	349.57
429.239	393.19
429.293	397.78
429.348	379.42
429.403	400.08
429.457	358.75
429.512	356.46
429.567	390.9
429.621	432.22
429.676	420.74
429.731	377.12
429.785	416.15
429.84	379.42
429.895	427.63
429.949	338.09
430.004	395.49
430.058	322.02
430.113	363.34
430.167	429.93
430.222	393.19
430.276	395.49
430.331	386.3
430.385	379.42
430.44	402.38
430.494	439.11
430.549	390.9
430.603	464.37
430.657	400.08
430.712	416.15
430.766	411.56
430.821	374.82
430.875	402.38
430.929	370.23
430.984	390.9
431.038	397.78
431.092	370.23
431.147	370.23
431.201	455.18
431.255	379.42
431.309	427.63
431.364	413.86
431.418	404.67
431.472	333.5
431.526	450.59
431.581	388.6
431.635	386.3
431.689	432.22
431.743	386.3
431.797	372.53
431.851	335.79
431.906	423.04
431.96	400.08
432.014	354.16
432.068	342.68
432.122	388.6
432.176	344.98
432.23	397.78
432.284	356.46
432.338	331.2
432.392	349.57
432.446	347.27
432.5	358.75
432.554	342.68
432.608	400.08
432.662	395.49
432.716	393.19
432.77	363.34
432.824	372.53
432.878	420.74
432.931	354.16
432.985	397.78
433.039	361.05
433.093	384.01
433.147	439.11
433.201	384.01
433.254	381.71
433.308	358.75
433.362	429.93
433.416	319.72
433.47	434.52
433.523	397.78
433.577	409.26
433.631	384.01
433.684	402.38
433.738	436.82
433.792	344.98
433.846	393.19
433.899	370.23
433.953	273.8
434.006	416.15
434.06	374.82
434.114	365.64
434.167	365.64
434.221	365.64
