Data from FLMS155811_14-52-32-283.txt Node
Date: Tue Mar 24 14:52:32 MDT 2020
User: ECEn Student
Spectrometer: FLMS15581
Trigger mode: 0
Integration Time (sec): 8.000000E-2
Scans to average: 1
Electric dark correction enabled: true
Nonlinearity correction enabled: false
Boxcar width: 0
XAxis mode: Wavelengths
Number of Pixels in Spectrum: 2048
>>>>>Begin Spectral Data<<<<<
298.026	66.44
298.106	66.44
298.185	66.44
298.265	-98.87
298.344	-57.54
298.424	-121.83
298.503	-25.4
298.583	-41.47
298.662	-52.95
298.741	-27.7
298.821	-41.47
298.9	-57.54
298.98	-43.77
299.059	11.34
299.138	-13.92
299.217	11.34
299.297	32
299.376	66.44
299.455	93.99
299.535	84.81
299.614	126.14
299.693	185.83
299.772	158.28
299.852	181.24
299.931	176.65
300.01	229.46
300.089	250.12
300.168	273.08
300.247	247.83
300.327	231.75
300.406	289.15
300.485	305.23
300.564	321.3
300.643	362.63
300.722	332.78
300.801	355.74
300.88	369.51
300.959	367.22
301.038	346.55
301.117	420.03
301.196	330.48
301.275	319
301.354	344.26
301.433	348.85
301.512	394.77
301.591	376.4
301.67	376.4
301.749	415.43
301.828	417.73
301.907	408.55
301.985	302.93
302.064	376.4
302.143	332.78
302.222	323.59
302.301	378.7
302.38	302.93
302.458	321.3
302.537	383.29
302.616	337.37
302.695	305.23
302.773	330.48
302.852	344.26
302.931	394.77
303.01	403.95
303.088	305.23
303.167	367.22
303.246	410.84
303.324	316.71
303.403	330.48
303.481	296.04
303.56	335.07
303.639	380.99
303.717	387.88
303.796	325.89
303.874	337.37
303.953	314.41
304.032	305.23
304.11	360.33
304.189	351.15
304.267	380.99
304.346	346.55
304.424	369.51
304.502	300.63
304.581	286.86
304.659	296.04
304.738	321.3
304.816	319
304.895	312.11
304.973	392.47
305.051	374.11
305.13	293.75
305.208	399.36
305.286	312.11
305.365	371.81
305.443	385.59
305.521	413.14
305.6	378.7
305.678	367.22
305.756	300.63
305.834	362.63
305.913	321.3
305.991	355.74
306.069	335.07
306.147	358.03
306.225	332.78
306.304	371.81
306.382	376.4
306.46	355.74
306.538	353.44
306.616	332.78
306.694	355.74
306.772	330.48
306.85	321.3
306.929	323.59
307.007	309.82
307.085	316.71
307.163	353.44
307.241	339.67
307.319	300.63
307.397	321.3
307.475	392.47
307.553	392.47
307.631	321.3
307.709	367.22
307.786	376.4
307.864	358.03
307.942	298.34
308.02	321.3
308.098	321.3
308.176	344.26
308.254	339.67
308.332	286.86
308.409	312.11
308.487	335.07
308.565	360.33
308.643	335.07
308.721	401.66
308.798	344.26
308.876	337.37
308.954	364.92
309.032	406.25
309.109	362.63
309.187	364.92
309.265	348.85
309.342	413.14
309.42	309.82
309.498	355.74
309.575	431.51
309.653	362.63
309.731	385.59
309.808	312.11
309.886	394.77
309.963	413.14
310.041	406.25
310.119	344.26
310.196	362.63
310.274	339.67
310.351	408.55
310.429	360.33
310.506	392.47
310.584	378.7
310.661	358.03
310.738	392.47
310.816	378.7
310.893	330.48
310.971	323.59
311.048	390.18
311.126	321.3
311.203	438.39
311.28	339.67
311.358	424.62
311.435	401.66
311.512	348.85
311.59	362.63
311.667	367.22
311.744	387.88
311.821	344.26
311.899	399.36
311.976	314.41
312.053	348.85
312.13	374.11
312.208	392.47
312.285	346.55
312.362	332.78
312.439	422.32
312.516	367.22
312.593	348.85
312.671	353.44
312.748	429.21
312.825	422.32
312.902	371.81
312.979	390.18
313.056	397.07
313.133	385.59
313.21	413.14
313.287	337.37
313.364	364.92
313.441	369.51
313.518	367.22
313.595	325.89
313.672	339.67
313.749	408.55
313.826	332.78
313.903	316.71
313.98	364.92
314.057	335.07
314.134	328.19
314.211	346.55
314.287	351.15
314.364	344.26
314.441	309.82
314.518	348.85
314.595	394.77
314.672	387.88
314.748	397.07
314.825	380.99
314.902	353.44
314.979	399.36
315.055	364.92
315.132	296.04
315.209	364.92
315.286	369.51
315.362	397.07
315.439	380.99
315.516	355.74
315.592	390.18
315.669	360.33
315.746	346.55
315.822	387.88
315.899	348.85
315.975	438.39
316.052	341.96
316.128	302.93
316.205	351.15
316.282	380.99
316.358	371.81
316.435	424.62
316.511	353.44
316.588	383.29
316.664	355.74
316.741	406.25
316.817	392.47
316.893	387.88
316.97	408.55
317.046	348.85
317.123	378.7
317.199	445.28
317.275	337.37
317.352	346.55
317.428	422.32
317.504	364.92
317.581	378.7
317.657	394.77
317.733	440.69
317.81	394.77
317.886	408.55
317.962	337.37
318.038	399.36
318.115	413.14
318.191	449.87
318.267	314.41
318.343	325.89
318.419	383.29
318.496	339.67
318.572	390.18
318.648	383.29
318.724	429.21
318.8	449.87
318.876	403.95
318.952	392.47
319.028	344.26
319.105	353.44
319.181	385.59
319.257	371.81
319.333	358.03
319.409	410.84
319.485	397.07
319.561	390.18
319.637	401.66
319.713	408.55
319.789	353.44
319.865	337.37
319.94	374.11
320.016	426.91
320.092	392.47
320.168	387.88
320.244	348.85
320.32	431.51
320.396	392.47
320.472	445.28
320.547	374.11
320.623	385.59
320.699	380.99
320.775	390.18
320.851	364.92
320.926	367.22
321.002	344.26
321.078	383.29
321.154	346.55
321.229	426.91
321.305	358.03
321.381	337.37
321.456	413.14
321.532	385.59
321.608	369.51
321.683	394.77
321.759	367.22
321.835	371.81
321.91	325.89
321.986	392.47
322.061	371.81
322.137	371.81
322.212	438.39
322.288	355.74
322.364	376.4
322.439	378.7
322.515	364.92
322.59	408.55
322.666	449.87
322.741	422.32
322.816	447.58
322.892	367.22
322.967	355.74
323.043	358.03
323.118	408.55
323.193	339.67
323.269	380.99
323.344	339.67
323.42	358.03
323.495	438.39
323.57	408.55
323.646	346.55
323.721	403.95
323.796	376.4
323.871	376.4
323.947	397.07
324.022	371.81
324.097	353.44
324.172	394.77
324.248	408.55
324.323	332.78
324.398	328.19
324.473	360.33
324.548	376.4
324.623	401.66
324.699	346.55
324.774	426.91
324.849	383.29
324.924	408.55
324.999	362.63
325.074	449.87
325.149	397.07
325.224	408.55
325.299	346.55
325.374	447.58
325.449	390.18
325.524	346.55
325.599	397.07
325.674	380.99
325.749	380.99
325.824	424.62
325.899	367.22
325.974	438.39
326.049	374.11
326.124	337.37
326.199	323.59
326.273	376.4
326.348	325.89
326.423	380.99
326.498	431.51
326.573	387.88
326.648	348.85
326.722	410.84
326.797	420.03
326.872	321.3
326.947	392.47
327.021	380.99
327.096	431.51
327.171	403.95
327.245	344.26
327.32	394.77
327.395	369.51
327.47	339.67
327.544	408.55
327.619	424.62
327.693	408.55
327.768	374.11
327.843	390.18
327.917	410.84
327.992	369.51
328.066	401.66
328.141	367.22
328.215	401.66
328.29	399.36
328.364	355.74
328.439	408.55
328.513	367.22
328.588	385.59
328.662	433.8
328.737	440.69
328.811	383.29
328.886	339.67
328.96	321.3
329.035	369.51
329.109	390.18
329.183	325.89
329.258	431.51
329.332	390.18
329.406	442.99
329.481	383.29
329.555	433.8
329.629	362.63
329.704	369.51
329.778	374.11
329.852	371.81
329.926	332.78
330.001	383.29
330.075	424.62
330.149	298.34
330.223	383.29
330.297	337.37
330.372	385.59
330.446	401.66
330.52	442.99
330.594	403.95
330.668	408.55
330.742	362.63
330.816	399.36
330.89	433.8
330.964	394.77
331.038	319
331.113	392.47
331.187	364.92
331.261	392.47
331.335	371.81
331.409	426.91
331.483	330.48
331.557	394.77
331.63	385.59
331.704	420.03
331.778	346.55
331.852	413.14
331.926	380.99
332	426.91
332.074	440.69
332.148	371.81
332.222	376.4
332.295	397.07
332.369	410.84
332.443	399.36
332.517	319
332.591	362.63
332.665	369.51
332.738	362.63
332.812	401.66
332.886	339.67
332.959	323.59
333.033	378.7
333.107	328.19
333.181	353.44
333.254	362.63
333.328	392.47
333.402	438.39
333.475	422.32
333.549	424.62
333.622	406.25
333.696	339.67
333.77	413.14
333.843	426.91
333.917	369.51
333.99	387.88
334.064	399.36
334.137	390.18
334.211	397.07
334.284	392.47
334.358	360.33
334.431	387.88
334.505	341.96
334.578	429.21
334.652	371.81
334.725	475.13
334.799	410.84
334.872	392.47
334.945	413.14
335.019	369.51
335.092	463.65
335.165	380.99
335.239	353.44
335.312	367.22
335.385	341.96
335.459	447.58
335.532	360.33
335.605	442.99
335.678	413.14
335.752	355.74
335.825	330.48
335.898	378.7
335.971	438.39
336.045	302.93
336.118	353.44
336.191	390.18
336.264	447.58
336.337	399.36
336.41	431.51
336.483	424.62
336.557	374.11
336.63	408.55
336.703	424.62
336.776	371.81
336.849	392.47
336.922	417.73
336.995	429.21
337.068	387.88
337.141	378.7
337.214	486.61
337.287	309.82
337.36	426.91
337.433	397.07
337.506	415.43
337.579	367.22
337.652	403.95
337.725	383.29
337.797	387.88
337.87	401.66
337.943	403.95
338.016	426.91
338.089	353.44
338.162	397.07
338.235	325.89
338.307	422.32
338.38	369.51
338.453	406.25
338.526	364.92
338.598	406.25
338.671	362.63
338.744	429.21
338.817	374.11
338.889	380.99
338.962	410.84
339.035	387.88
339.107	417.73
339.18	408.55
339.253	433.8
339.325	390.18
339.398	397.07
339.47	420.03
339.543	355.74
339.616	374.11
339.688	351.15
339.761	369.51
339.833	403.95
339.906	390.18
339.978	403.95
340.051	328.19
340.123	447.58
340.196	367.22
340.268	401.66
340.341	403.95
340.413	380.99
340.485	403.95
340.558	385.59
340.63	390.18
340.703	376.4
340.775	433.8
340.847	385.59
340.92	413.14
340.992	410.84
341.064	426.91
341.137	360.33
341.209	390.18
341.281	399.36
341.354	353.44
341.426	383.29
341.498	420.03
341.57	406.25
341.643	282.27
341.715	415.43
341.787	449.87
341.859	348.85
341.931	374.11
342.003	417.73
342.076	392.47
342.148	348.85
342.22	385.59
342.292	385.59
342.364	341.96
342.436	399.36
342.508	358.03
342.58	463.65
342.652	371.81
342.724	424.62
342.796	369.51
342.868	376.4
342.94	401.66
343.012	415.43
343.084	397.07
343.156	392.47
343.228	367.22
343.3	362.63
343.372	406.25
343.444	364.92
343.516	380.99
343.588	371.81
343.66	429.21
343.731	392.47
343.803	417.73
343.875	401.66
343.947	332.78
344.019	362.63
344.09	413.14
344.162	429.21
344.234	348.85
344.306	397.07
344.377	355.74
344.449	408.55
344.521	371.81
344.593	403.95
344.664	378.7
344.736	403.95
344.808	424.62
344.879	410.84
344.951	380.99
345.023	420.03
345.094	367.22
345.166	364.92
345.237	367.22
345.309	369.51
345.38	367.22
345.452	413.14
345.524	362.63
345.595	440.69
345.667	374.11
345.738	344.26
345.81	417.73
345.881	479.72
345.953	376.4
346.024	417.73
346.095	429.21
346.167	420.03
346.238	392.47
346.31	445.28
346.381	351.15
346.452	408.55
346.524	362.63
346.595	408.55
346.666	420.03
346.738	369.51
346.809	392.47
346.88	424.62
346.952	438.39
347.023	422.32
347.094	392.47
347.165	403.95
347.237	364.92
347.308	348.85
347.379	436.1
347.45	399.36
347.521	371.81
347.593	394.77
347.664	426.91
347.735	401.66
347.806	415.43
347.877	406.25
347.948	371.81
348.019	397.07
348.09	385.59
348.161	401.66
348.233	332.78
348.304	383.29
348.375	406.25
348.446	390.18
348.517	399.36
348.588	364.92
348.659	454.47
348.73	374.11
348.801	392.47
348.871	374.11
348.942	399.36
349.013	369.51
349.084	436.1
349.155	390.18
349.226	358.03
349.297	387.88
349.368	452.17
349.439	447.58
349.509	378.7
349.58	394.77
349.651	397.07
349.722	424.62
349.793	367.22
349.863	429.21
349.934	408.55
350.005	429.21
350.076	470.54
350.146	436.1
350.217	449.87
350.288	351.15
350.358	339.67
350.429	351.15
350.5	415.43
350.57	371.81
350.641	387.88
350.711	394.77
350.782	397.07
350.853	401.66
350.923	410.84
350.994	355.74
351.064	367.22
351.135	360.33
351.205	436.1
351.276	422.32
351.346	367.22
351.417	390.18
351.487	410.84
351.558	383.29
351.628	426.91
351.699	449.87
351.769	456.76
351.84	403.95
351.91	454.47
351.98	415.43
352.051	413.14
352.121	454.47
352.191	403.95
352.262	351.15
352.332	346.55
352.402	426.91
352.473	364.92
352.543	426.91
352.613	456.76
352.683	463.65
352.754	378.7
352.824	358.03
352.894	415.43
352.964	394.77
353.035	438.39
353.105	401.66
353.175	459.06
353.245	383.29
353.315	413.14
353.385	436.1
353.455	390.18
353.526	380.99
353.596	449.87
353.666	403.95
353.736	387.88
353.806	433.8
353.876	406.25
353.946	362.63
354.016	399.36
354.086	406.25
354.156	424.62
354.226	378.7
354.296	374.11
354.366	410.84
354.436	447.58
354.506	424.62
354.576	383.29
354.645	417.73
354.715	449.87
354.785	486.61
354.855	392.47
354.925	371.81
354.995	387.88
355.065	454.47
355.134	436.1
355.204	408.55
355.274	383.29
355.344	397.07
355.414	415.43
355.483	392.47
355.553	410.84
355.623	431.51
355.693	392.47
355.762	447.58
355.832	426.91
355.902	417.73
355.971	454.47
356.041	417.73
356.111	321.3
356.18	378.7
356.25	378.7
356.319	355.74
356.389	415.43
356.459	482.02
356.528	360.33
356.598	488.91
356.667	422.32
356.737	456.76
356.806	378.7
356.876	429.21
356.945	401.66
357.015	422.32
357.084	408.55
357.154	415.43
357.223	459.06
357.292	403.95
357.362	408.55
357.431	433.8
357.501	387.88
357.57	422.32
357.639	436.1
357.709	429.21
357.778	383.29
357.847	429.21
357.917	394.77
357.986	401.66
358.055	390.18
358.124	514.16
358.194	426.91
358.263	408.55
358.332	431.51
358.401	383.29
358.471	376.4
358.54	406.25
358.609	415.43
358.678	390.18
358.747	413.14
358.816	426.91
358.886	447.58
358.955	387.88
359.024	442.99
359.093	491.2
359.162	465.95
359.231	417.73
359.3	447.58
359.369	406.25
359.438	447.58
359.507	367.22
359.576	433.8
359.645	358.03
359.714	415.43
359.783	413.14
359.852	449.87
359.921	442.99
359.99	445.28
360.059	415.43
360.128	454.47
360.197	417.73
360.266	433.8
360.334	465.95
360.403	498.09
360.472	452.17
360.541	364.92
360.61	461.35
360.679	426.91
360.747	456.76
360.816	433.8
360.885	380.99
360.954	433.8
361.022	465.95
361.091	495.79
361.16	447.58
361.228	479.72
361.297	415.43
361.366	422.32
361.434	394.77
361.503	399.36
361.572	461.35
361.64	456.76
361.709	477.43
361.778	394.77
361.846	433.8
361.915	456.76
361.983	413.14
362.052	413.14
362.12	394.77
362.189	475.13
362.257	348.85
362.326	440.69
362.394	449.87
362.463	399.36
362.531	445.28
362.6	426.91
362.668	463.65
362.737	472.83
362.805	442.99
362.873	438.39
362.942	479.72
363.01	429.21
363.079	488.91
363.147	447.58
363.215	399.36
363.284	498.09
363.352	472.83
363.42	475.13
363.488	486.61
363.557	452.17
363.625	465.95
363.693	447.58
363.761	495.79
363.83	468.24
363.898	548.6
363.966	500.39
364.034	491.2
364.102	564.67
364.171	514.16
364.239	532.53
364.307	502.68
364.375	507.27
364.443	530.23
364.511	472.83
364.579	555.49
364.647	555.49
364.715	553.19
364.783	504.98
364.851	599.11
364.919	645.04
364.987	599.11
365.055	594.52
365.123	615.19
365.191	566.97
365.259	654.22
365.327	640.44
365.395	606
365.463	638.15
365.531	647.33
365.599	700.14
365.667	638.15
365.735	702.44
365.802	791.98
365.87	727.69
365.938	778.2
366.006	700.14
366.074	723.1
366.142	690.96
366.209	824.12
366.277	794.28
366.345	796.57
366.413	881.52
366.48	837.9
366.548	913.67
366.616	911.37
366.683	913.67
366.751	1042.24
366.819	897.6
366.886	1053.72
366.954	1007.8
367.022	1030.76
367.089	1067.5
367.157	1074.39
367.224	1120.31
367.292	1166.23
367.36	1182.3
367.427	1150.16
367.495	1212.15
367.562	1161.64
367.63	1253.48
367.697	1253.48
367.765	1260.37
367.832	1363.69
367.9	1375.17
367.967	1365.98
368.034	1471.6
368.102	1434.86
368.169	1512.93
368.237	1506.04
368.304	1483.08
368.371	1600.18
368.439	1701.2
368.506	1630.02
368.573	1795.34
368.641	1751.71
368.708	1857.33
368.775	1783.86
368.843	1898.66
368.91	2013.46
368.977	1882.58
369.044	2041.01
369.112	2082.34
369.179	2135.15
369.246	2155.81
369.313	2213.21
369.38	2178.77
369.448	2245.35
369.515	2376.23
369.582	2263.72
369.649	2387.71
369.716	2491.03
369.783	2633.38
369.85	2484.14
369.917	2729.81
369.984	2810.17
370.052	2743.59
370.119	2934.16
370.186	2964
370.253	2908.9
370.32	3067.33
370.387	3048.96
370.454	3253.3
370.521	3329.07
370.587	3439.28
370.654	3402.54
370.721	3420.91
370.788	3487.49
370.855	3625.26
370.922	3749.24
370.989	3744.65
371.056	3873.22
371.123	3962.77
371.189	3981.14
371.256	4070.68
371.323	4284.21
371.39	4307.17
371.457	4350.79
371.523	4502.33
371.59	4607.95
371.657	4773.26
371.724	4775.56
371.79	4908.72
371.857	5002.86
371.924	5028.12
371.991	5184.25
372.057	5220.98
372.124	5406.96
372.191	5455.18
372.257	5613.6
372.324	5687.07
372.39	5691.66
372.457	5868.46
372.524	5997.03
372.59	6123.31
372.657	6256.48
372.723	6249.59
372.79	6419.5
372.856	6708.8
372.923	6681.24
372.989	6913.14
373.056	7078.45
373.122	7062.38
373.189	7321.83
373.255	7340.2
373.322	7365.46
373.388	7461.89
373.454	7742
373.521	7891.24
373.587	8111.66
373.654	8279.27
373.72	8364.22
373.786	8499.68
373.853	8786.68
373.919	8883.12
373.985	9066.8
374.052	9284.92
374.118	9250.48
374.184	9427.27
374.25	9732.64
374.317	9916.32
374.383	9891.07
374.449	10100
374.515	10389.3
374.581	10455.88
374.648	10676.3
374.714	10639.56
374.78	11323.78
374.846	11137.8
374.912	11463.83
374.978	11665.88
375.044	11780.68
375.11	12090.64
375.177	12292.69
375.243	12653.17
375.309	12749.6
375.375	13045.78
375.441	13139.92
375.507	13387.89
375.573	13564.68
375.639	13938.93
375.705	14085.87
375.771	14129.5
375.837	14349.92
375.903	14868.81
375.968	14900.96
376.034	15314.24
376.1	15348.68
376.166	15683.9
376.232	15856.1
376.298	16322.19
376.364	16335.96
376.43	16753.84
376.495	16981.14
376.561	17052.32
376.627	17318.66
376.693	17578.11
376.759	17814.59
376.824	18101.6
376.89	18597.53
376.956	18914.38
377.022	19088.88
377.087	19396.55
377.153	19414.91
377.219	19786.87
377.284	20252.96
377.35	20606.54
377.416	20801.7
377.481	21159.88
377.547	21226.46
377.613	21593.83
377.678	22225.23
377.744	22261.96
377.809	22418.09
377.875	22948.47
377.94	23228.58
378.006	23455.89
378.071	23754.37
378.137	24502.87
378.202	24548.79
378.268	24748.54
378.333	25072.28
378.399	25396.02
378.464	25811.6
378.53	26596.83
378.595	26959.6
378.661	27212.16
378.726	27462.43
378.791	27953.77
378.857	28511.7
378.922	28849.22
378.987	28989.27
379.053	29593.12
379.118	30215.34
379.183	30686.02
379.249	30933.99
379.314	31443.71
379.379	31457.48
379.444	32226.65
379.51	32449.36
379.575	33312.66
379.64	33246.07
379.705	33845.33
379.771	33953.25
379.836	34304.53
379.901	34800.47
379.966	35744.13
380.031	35980.62
380.096	36905.91
380.161	37335.27
380.227	37776.1
380.292	37934.53
380.357	38113.61
380.422	39126.15
380.487	39296.06
380.552	39658.83
380.617	40489.98
380.682	40712.7
380.747	41096.13
380.812	41419.87
380.877	42028.31
380.942	42361.23
381.007	42870.95
381.072	43385.25
381.137	43715.88
381.202	44700.87
381.266	44719.23
381.331	44937.36
381.396	44873.07
381.461	45254.2
381.526	45954.49
381.591	46381.55
381.656	46622.63
381.72	46884.37
381.785	47226.48
381.85	47508.89
381.915	47722.41
381.979	48071.41
382.044	48092.07
382.109	48516.83
382.174	48532.91
382.238	48838.28
382.303	48806.13
382.368	48686.74
382.432	48895.68
382.497	48999
382.562	49331.92
382.626	49256.15
382.691	49311.25
382.756	48858.94
382.82	49063.28
382.885	48994.4
382.949	49205.64
383.014	49017.36
383.078	48555.87
383.143	48819.91
383.208	48216.06
383.272	47642.05
383.337	48117.33
383.401	47885.43
383.465	47136.93
383.53	46980.8
383.594	46514.71
383.659	46556.04
383.723	46319.55
383.788	46551.45
383.852	45385.08
383.916	45396.56
383.981	45219.76
384.045	44838.63
384.109	43421.99
384.174	43500.05
384.238	42815.84
384.302	42581.65
384.367	41885.96
384.431	41337.21
384.495	40995.11
384.56	40593.3
384.624	40476.21
384.688	39569.28
384.752	38880.48
384.816	38361.58
384.881	37544.2
384.945	36421.46
385.009	36963.31
385.073	35714.28
385.137	34807.36
385.201	34954.31
385.265	33921.1
385.33	34049.68
385.394	33163.42
385.458	32359.81
385.522	32318.49
385.586	31742.19
385.65	31567.69
385.714	30807.71
385.778	30089.06
385.842	29609.2
385.906	28986.98
385.97	28964.02
386.034	28481.85
386.098	27480.79
386.162	27051.44
386.226	26819.54
386.29	26059.56
386.354	25552.15
386.417	25538.37
386.481	24638.33
386.545	24803.65
386.609	23894.43
386.673	23660.23
386.737	23570.69
386.8	23290.58
386.864	22546.67
386.928	22597.18
386.992	22447.94
387.056	21736.18
387.119	21293.05
387.183	21022.12
387.247	20785.63
387.31	20349.39
387.374	20200.15
387.438	19619.26
387.502	19359.81
387.565	18985.56
387.629	19277.15
387.692	18788.1
387.756	18301.35
387.82	18289.87
387.883	17984.5
387.947	17481.67
388.01	17614.84
388.074	17371.46
388.138	17001.81
388.201	16528.83
388.265	16597.71
388.328	16365.81
388.392	16009.93
388.455	15968.6
388.519	15768.85
388.582	15403.78
388.645	15350.98
388.709	15201.74
388.772	15295.87
388.836	14703.5
388.899	14793.05
388.962	14627.73
389.026	14430.28
389.089	14076.69
389.153	14349.92
389.216	13707.03
389.279	13697.85
389.343	13695.55
389.406	13771.32
389.469	13433.81
389.532	13213.39
389.596	13038.89
389.659	13029.71
389.722	12924.09
389.785	12816.18
389.848	12705.97
389.912	12499.33
389.975	12352.39
390.038	12602.65
390.101	12235.29
390.164	12276.62
390.227	12219.22
390.291	12173.3
390.354	12042.43
390.417	11895.48
390.48	11672.77
390.543	11619.96
390.606	11578.63
390.669	11574.04
390.732	11725.58
390.795	11268.67
390.858	11041.37
390.921	10951.82
390.984	11032.18
391.047	11048.25
391.11	10768.14
391.173	10756.66
391.236	10894.42
391.299	10701.56
391.362	10510.99
391.424	10733.7
391.487	10370.93
391.55	10265.32
391.613	10366.34
391.676	10476.55
391.739	9877.29
391.802	10283.68
391.864	10015.05
391.927	9753.3
391.99	9757.9
392.053	9654.58
392.115	9840.55
392.178	9420.38
392.241	9633.91
392.304	9480.08
392.366	9388.24
392.429	9360.69
392.492	9358.39
392.554	9147.16
392.617	9103.53
392.68	8988.73
392.742	8988.73
392.805	8747.65
392.867	8834.9
392.93	8625.96
392.992	8788.98
393.055	8554.79
393.118	8423.92
393.18	8476.72
393.243	8194.31
393.305	8260.9
393.368	8019.82
393.43	8097.88
393.493	7875.17
393.555	7955.53
393.618	7744.3
393.68	7767.26
393.742	7544.54
393.805	7450.41
393.867	7340.2
393.93	7119.78
393.992	7172.59
394.054	7142.74
394.117	7087.64
394.179	6830.48
394.241	6903.96
394.304	6782.27
394.366	6699.61
394.428	6589.4
394.49	6502.16
394.553	6502.16
394.615	6279.44
394.677	6205.97
394.739	6155.46
394.802	6029.18
394.864	5960.3
394.926	5923.56
394.988	5873.05
395.05	5723.81
395.112	5673.3
395.174	5620.49
395.237	5707.74
395.299	5572.27
395.361	5356.45
395.423	5312.82
395.485	5266.9
395.547	5186.54
395.609	4904.13
395.671	4924.8
395.733	4970.72
395.795	4704.38
395.857	4761.78
395.919	4642.39
395.981	4695.2
396.043	4663.05
396.105	4548.25
396.167	4474.78
396.229	4378.35
396.291	4392.12
396.352	4224.51
396.414	4107.42
396.476	4213.03
396.538	4192.37
396.6	4084.46
396.662	3976.55
396.724	4006.39
396.785	3866.34
396.847	3822.71
396.909	3760.72
396.971	3641.33
397.032	3606.89
397.094	3595.41
397.156	3556.38
397.218	3487.49
397.279	3404.84
397.341	3416.32
397.403	3290.04
397.464	3395.65
397.526	3195.9
397.588	3232.64
397.649	3159.17
397.711	3133.91
397.772	3035.18
397.834	3035.18
397.896	3035.18
397.957	2897.42
398.019	2964
398.08	2991.56
398.142	2743.59
398.203	2913.49
398.265	2761.96
398.326	2750.48
398.388	2732.11
398.449	2672.41
398.511	2697.67
398.572	2571.39
398.633	2610.42
398.695	2665.52
398.756	2585.16
398.818	2525.47
398.879	2470.36
398.94	2527.76
399.002	2431.33
399.063	2426.74
399.124	2373.93
399.186	2447.4
399.247	2256.83
399.308	2305.05
399.369	2325.71
399.431	2334.9
399.492	2316.53
399.553	2208.62
399.614	2259.13
399.676	2132.85
399.737	2137.44
399.798	2164.99
399.859	2114.48
399.92	2135.15
399.981	2160.4
400.042	2171.88
400.104	1997.38
400.165	1985.9
400.226	2004.27
400.287	2091.52
400.348	2036.42
400.409	1985.9
400.47	1852.74
400.531	1985.9
400.592	1960.65
400.653	1988.2
400.714	1861.92
400.775	1877.99
400.836	1848.14
400.897	1852.74
400.958	1857.33
401.019	1827.48
401.08	1829.78
401.141	1770.08
401.201	1910.14
401.262	1719.57
401.323	1786.15
401.384	1880.29
401.445	1708.09
401.506	1809.11
401.567	1577.22
401.627	1820.59
401.688	1694.31
401.749	1763.19
401.81	1680.54
401.87	1666.76
401.931	1696.61
401.992	1618.54
402.053	1630.02
402.113	1708.09
402.174	1549.66
402.235	1579.51
402.295	1549.66
402.356	1572.62
402.417	1611.66
402.477	1574.92
402.538	1607.06
402.598	1588.7
402.659	1535.89
402.719	1467.01
402.78	1489.97
402.841	1492.26
402.901	1561.14
402.962	1600.18
403.022	1437.16
403.083	1531.29
403.143	1545.07
403.204	1506.04
403.264	1512.93
403.324	1471.6
403.385	1496.85
403.445	1467.01
403.506	1382.05
403.566	1418.79
403.627	1411.9
403.687	1427.97
403.747	1382.05
403.808	1370.57
403.868	1434.86
403.928	1382.05
403.989	1347.61
404.049	1329.25
404.109	1343.02
404.169	1329.25
404.23	1310.88
404.29	1294.81
404.35	1248.89
404.41	1292.51
404.47	1349.91
404.531	1354.5
404.591	1303.99
404.651	1276.44
404.711	1258.07
404.771	1230.52
404.831	1219.04
404.892	1281.03
404.952	1212.15
405.012	1239.7
405.072	1212.15
405.132	1198.37
405.192	1200.67
405.252	1157.05
405.312	1225.93
405.372	1124.9
405.432	1136.38
405.492	1157.05
405.552	1258.07
405.612	1030.76
405.672	1163.93
405.732	1101.94
405.792	1065.2
405.852	1143.27
405.912	1016.99
405.971	1056.02
406.031	1060.61
406.091	1138.68
406.151	1081.28
406.211	1033.06
406.271	1028.47
406.33	1016.99
406.39	1060.61
406.45	1088.17
406.51	1035.36
406.57	973.36
406.629	955
406.689	957.29
406.749	943.52
406.808	959.59
406.868	922.85
406.928	895.3
406.988	980.25
407.047	936.63
407.107	966.48
407.166	966.48
407.226	915.96
407.286	909.08
407.345	899.89
407.405	842.49
407.464	888.41
407.524	899.89
407.584	872.34
407.643	872.34
407.703	881.52
407.762	794.28
407.822	853.97
407.881	895.3
407.941	849.38
408	831.01
408.059	805.76
408.119	840.2
408.178	870.04
408.238	856.27
408.297	828.72
408.356	849.38
408.416	814.94
408.475	831.01
408.535	796.57
408.594	801.16
408.653	782.8
408.712	734.58
408.772	769.02
408.831	725.4
408.89	741.47
408.95	787.39
409.009	716.21
409.068	720.8
409.127	716.21
409.186	739.17
409.246	707.03
409.305	729.99
409.364	654.22
409.423	688.66
409.482	764.43
409.541	720.8
409.6	713.92
409.66	773.61
409.719	619.78
409.778	741.47
409.837	690.96
409.896	711.62
409.955	713.92
410.014	723.1
410.073	638.15
410.132	727.69
410.191	686.36
410.25	615.19
410.309	707.03
410.368	608.3
410.427	649.63
410.486	665.7
410.545	674.88
410.603	656.52
410.662	612.89
410.721	670.29
410.78	658.81
410.839	585.34
410.898	603.71
410.957	615.19
411.015	606
411.074	587.63
411.133	578.45
411.192	615.19
411.25	716.21
411.309	583.04
411.368	606
411.427	693.25
411.485	569.27
411.544	610.6
411.603	580.75
411.661	619.78
411.72	603.71
411.779	601.41
411.837	649.63
411.896	580.75
411.955	589.93
412.013	619.78
412.072	626.67
412.13	624.37
412.189	594.52
412.247	493.5
412.306	548.6
412.364	557.79
412.423	606
412.481	624.37
412.54	624.37
412.598	564.67
412.657	541.71
412.715	527.94
412.774	518.75
412.832	564.67
412.891	594.52
412.949	555.49
413.007	580.75
413.066	557.79
413.124	534.83
413.182	564.67
413.241	539.42
413.299	580.75
413.357	532.53
413.416	544.01
413.474	589.93
413.532	564.67
413.59	502.68
413.649	550.9
413.707	603.71
413.765	622.08
413.823	511.87
413.881	500.39
413.94	587.63
413.998	546.31
414.056	550.9
414.114	500.39
414.172	534.83
414.23	495.79
414.288	521.05
414.347	569.27
414.405	566.97
414.463	456.76
414.521	523.35
414.579	523.35
414.637	573.86
414.695	472.83
414.753	504.98
414.811	564.67
414.869	564.67
414.927	516.46
414.985	507.27
415.043	477.43
415.101	456.76
415.158	488.91
415.216	511.87
415.274	470.54
415.332	546.31
415.39	537.12
415.448	521.05
415.506	514.16
415.563	488.91
415.621	498.09
415.679	548.6
415.737	468.24
415.795	504.98
415.852	438.39
415.91	507.27
415.968	509.57
416.026	514.16
416.083	477.43
416.141	449.87
416.199	470.54
416.256	557.79
416.314	445.28
416.372	555.49
416.429	532.53
416.487	456.76
416.544	491.2
416.602	539.42
416.66	442.99
416.717	408.55
416.775	426.91
416.832	456.76
416.89	436.1
416.947	502.68
417.005	498.09
417.062	544.01
417.12	486.61
417.177	479.72
417.235	463.65
417.292	484.31
417.35	488.91
417.407	546.31
417.464	507.27
417.522	493.5
417.579	472.83
417.637	511.87
417.694	475.13
417.751	470.54
417.809	422.32
417.866	465.95
417.923	472.83
417.981	376.4
418.038	580.75
418.095	436.1
418.152	468.24
418.21	452.17
418.267	454.47
418.324	484.31
418.381	511.87
418.438	440.69
418.496	475.13
418.553	484.31
418.61	449.87
418.667	449.87
418.724	390.18
418.781	408.55
418.838	495.79
418.895	454.47
418.952	459.06
419.01	392.47
419.067	447.58
419.124	440.69
419.181	447.58
419.238	477.43
419.295	482.02
419.352	440.69
419.409	440.69
419.466	514.16
419.523	440.69
419.579	585.34
419.636	426.91
419.693	436.1
419.75	440.69
419.807	394.77
419.864	403.95
419.921	475.13
419.978	479.72
420.034	436.1
420.091	422.32
420.148	459.06
420.205	454.47
420.262	346.55
420.318	479.72
420.375	449.87
420.432	468.24
420.489	447.58
420.545	390.18
420.602	465.95
420.659	413.14
420.715	399.36
420.772	431.51
420.829	374.11
420.885	408.55
420.942	454.47
420.999	465.95
421.055	426.91
421.112	380.99
421.168	438.39
421.225	415.43
421.282	399.36
421.338	429.21
421.395	415.43
421.451	440.69
421.508	374.11
421.564	498.09
421.621	408.55
421.677	420.03
421.734	472.83
421.79	399.36
421.846	355.74
421.903	374.11
421.959	431.51
422.016	447.58
422.072	447.58
422.128	449.87
422.185	426.91
422.241	394.77
422.297	403.95
422.354	403.95
422.41	449.87
422.466	383.29
422.523	440.69
422.579	449.87
422.635	413.14
422.691	454.47
422.748	385.59
422.804	394.77
422.86	509.57
422.916	394.77
422.972	392.47
423.029	339.67
423.085	449.87
423.141	387.88
423.197	491.2
423.253	358.03
423.309	449.87
423.365	459.06
423.421	387.88
423.477	447.58
423.533	422.32
423.589	344.26
423.645	422.32
423.701	410.84
423.757	358.03
423.813	403.95
423.869	346.55
423.925	399.36
423.981	376.4
424.037	394.77
424.093	376.4
424.149	339.67
424.205	392.47
424.261	380.99
424.317	413.14
424.373	399.36
424.428	390.18
424.484	422.32
424.54	369.51
424.596	408.55
424.652	433.8
424.708	383.29
424.763	348.85
424.819	374.11
424.875	456.76
424.931	392.47
424.986	463.65
425.042	385.59
425.098	367.22
425.153	445.28
425.209	403.95
425.265	346.55
425.32	380.99
425.376	367.22
425.432	410.84
425.487	335.07
425.543	422.32
425.598	369.51
425.654	367.22
425.709	394.77
425.765	420.03
425.82	413.14
425.876	387.88
425.932	399.36
425.987	399.36
426.042	380.99
426.098	394.77
426.153	383.29
426.209	387.88
426.264	346.55
426.32	420.03
426.375	431.51
426.43	403.95
426.486	420.03
426.541	385.59
426.597	348.85
426.652	348.85
426.707	358.03
426.763	385.59
426.818	390.18
426.873	390.18
426.928	394.77
426.984	408.55
427.039	367.22
427.094	369.51
427.149	406.25
427.205	399.36
427.26	383.29
427.315	445.28
427.37	369.51
427.425	364.92
427.48	410.84
427.536	348.85
427.591	470.54
427.646	337.37
427.701	385.59
427.756	394.77
427.811	367.22
427.866	346.55
427.921	376.4
427.976	394.77
428.031	362.63
428.086	445.28
428.141	348.85
428.196	367.22
428.251	390.18
428.306	397.07
428.361	337.37
428.416	417.73
428.471	335.07
428.526	383.29
428.581	364.92
428.636	358.03
428.691	378.7
428.745	369.51
428.8	362.63
428.855	376.4
428.91	238.64
428.965	415.43
429.02	420.03
429.074	364.92
429.129	422.32
429.184	348.85
429.239	351.15
429.293	353.44
429.348	312.11
429.403	371.81
429.457	367.22
429.512	406.25
429.567	410.84
429.621	422.32
429.676	456.76
429.731	367.22
429.785	397.07
429.84	335.07
429.895	344.26
429.949	454.47
430.004	344.26
430.058	341.96
430.113	397.07
430.167	420.03
430.222	374.11
430.276	392.47
430.331	452.17
430.385	328.19
430.44	353.44
430.494	316.71
430.549	367.22
430.603	346.55
430.657	353.44
430.712	397.07
430.766	397.07
430.821	413.14
430.875	417.73
430.929	465.95
430.984	351.15
431.038	332.78
431.092	380.99
431.147	374.11
431.201	367.22
431.255	355.74
431.309	346.55
431.364	424.62
431.418	325.89
431.472	380.99
431.526	399.36
431.581	358.03
431.635	351.15
431.689	392.47
431.743	364.92
431.797	397.07
431.851	385.59
431.906	378.7
431.96	353.44
432.014	380.99
432.068	374.11
432.122	353.44
432.176	378.7
432.23	392.47
432.284	424.62
432.338	417.73
432.392	387.88
432.446	351.15
432.5	403.95
432.554	397.07
432.608	415.43
432.662	397.07
432.716	374.11
432.77	408.55
432.824	364.92
432.878	378.7
432.931	392.47
432.985	394.77
433.039	401.66
433.093	335.07
433.147	346.55
433.201	362.63
433.254	316.71
433.308	413.14
433.362	410.84
433.416	330.48
433.47	364.92
433.523	374.11
433.577	426.91
433.631	376.4
433.684	325.89
433.738	413.14
433.792	321.3
433.846	387.88
433.899	353.44
433.953	392.47
434.006	325.89
434.06	307.52
434.114	387.88
434.167	387.88
434.221	387.88
