Data from FLMS155811_13-12-18-676.txt Node
Date: Wed Mar 25 13:12:18 MDT 2020
User: ECEn Student
Spectrometer: FLMS15581
Trigger mode: 0
Integration Time (sec): 1.000000E-1
Scans to average: 1
Electric dark correction enabled: true
Nonlinearity correction enabled: false
Boxcar width: 0
XAxis mode: Wavelengths
Number of Pixels in Spectrum: 2048
>>>>>Begin Spectral Data<<<<<
298.026	11.77
298.106	11.77
298.185	11.77
298.265	-64
298.344	-50.23
298.424	-64
298.503	-47.93
298.583	-61.71
298.662	-45.63
298.741	-47.93
298.821	-105.33
298.9	-47.93
298.98	27.84
299.059	-27.27
299.138	16.36
299.217	-15.79
299.297	48.5
299.376	64.58
299.455	78.35
299.535	89.83
299.614	138.05
299.693	133.46
299.772	165.6
299.852	177.08
299.931	149.53
300.01	188.56
300.089	218.41
300.168	248.26
300.247	303.36
300.327	294.18
300.406	374.54
300.485	310.25
300.564	294.18
300.643	275.81
300.722	431.94
300.801	351.58
300.88	346.98
300.959	353.87
301.038	344.69
301.117	441.12
301.196	376.83
301.275	379.13
301.354	383.72
301.433	392.9
301.512	404.38
301.591	408.98
301.67	413.57
301.749	324.02
301.828	415.86
301.907	372.24
301.985	406.68
302.064	340.1
302.143	431.94
302.222	441.12
302.301	420.46
302.38	386.02
302.458	367.65
302.537	344.69
302.616	312.54
302.695	397.5
302.773	358.46
302.852	358.46
302.931	342.39
303.01	395.2
303.088	431.94
303.167	395.2
303.246	390.61
303.324	335.5
303.403	330.91
303.481	427.34
303.56	358.46
303.639	360.76
303.717	356.17
303.796	372.24
303.874	333.21
303.953	307.95
304.032	330.91
304.11	383.72
304.189	328.62
304.267	418.16
304.346	319.43
304.424	372.24
304.502	314.84
304.581	310.25
304.659	346.98
304.738	365.35
304.816	346.98
304.895	353.87
304.973	351.58
305.051	406.68
305.13	383.72
305.208	319.43
305.286	351.58
305.365	372.24
305.443	317.14
305.521	351.58
305.6	356.17
305.678	399.79
305.756	314.84
305.834	305.66
305.913	353.87
305.991	397.5
306.069	383.72
306.147	372.24
306.225	376.83
306.304	319.43
306.382	418.16
306.46	379.13
306.538	337.8
306.616	390.61
306.694	388.31
306.772	369.94
306.85	372.24
306.929	268.92
307.007	255.14
307.085	399.79
307.163	335.5
307.241	365.35
307.319	372.24
307.397	374.54
307.475	346.98
307.553	379.13
307.631	374.54
307.709	383.72
307.786	369.94
307.864	337.8
307.942	390.61
308.02	337.8
308.098	402.09
308.176	326.32
308.254	466.38
308.332	392.9
308.409	374.54
308.487	333.21
308.565	310.25
308.643	392.9
308.721	379.13
308.798	301.06
308.876	349.28
308.954	356.17
309.032	365.35
309.109	408.98
309.187	392.9
309.265	386.02
309.342	438.82
309.42	374.54
309.498	356.17
309.575	420.46
309.653	381.42
309.731	379.13
309.808	420.46
309.886	383.72
309.963	337.8
310.041	356.17
310.119	436.53
310.196	425.05
310.274	374.54
310.351	392.9
310.429	328.62
310.506	411.27
310.584	358.46
310.661	369.94
310.738	310.25
310.816	369.94
310.893	337.8
310.971	340.1
311.048	335.5
311.126	402.09
311.203	404.38
311.28	411.27
311.358	408.98
311.435	324.02
311.512	438.82
311.59	427.34
311.667	388.31
311.744	337.8
311.821	363.06
311.899	369.94
311.976	402.09
312.053	372.24
312.13	351.58
312.208	356.17
312.285	386.02
312.362	388.31
312.439	420.46
312.516	381.42
312.593	379.13
312.671	395.2
312.748	450.3
312.825	411.27
312.902	374.54
312.979	427.34
313.056	326.32
313.133	390.61
313.21	438.82
313.287	411.27
313.364	374.54
313.441	365.35
313.518	346.98
313.595	365.35
313.672	420.46
313.749	346.98
313.826	310.25
313.903	392.9
313.98	369.94
314.057	374.54
314.134	411.27
314.211	360.76
314.287	392.9
314.364	450.3
314.441	415.86
314.518	397.5
314.595	422.75
314.672	379.13
314.748	372.24
314.825	408.98
314.902	344.69
314.979	317.14
315.055	399.79
315.132	346.98
315.209	383.72
315.286	429.64
315.362	402.09
315.439	319.43
315.516	328.62
315.592	429.64
315.669	342.39
315.746	328.62
315.822	374.54
315.899	411.27
315.975	411.27
316.052	431.94
316.128	438.82
316.205	360.76
316.282	374.54
316.358	402.09
316.435	422.75
316.511	415.86
316.588	303.36
316.664	429.64
316.741	356.17
316.817	344.69
316.893	381.42
316.97	408.98
317.046	411.27
317.123	392.9
317.199	392.9
317.275	392.9
317.352	379.13
317.428	374.54
317.504	383.72
317.581	397.5
317.657	411.27
317.733	422.75
317.81	374.54
317.886	415.86
317.962	386.02
318.038	466.38
318.115	390.61
318.191	397.5
318.267	340.1
318.343	340.1
318.419	425.05
318.496	342.39
318.572	381.42
318.648	372.24
318.724	344.69
318.8	326.32
318.876	418.16
318.952	374.54
319.028	415.86
319.105	429.64
319.181	374.54
319.257	374.54
319.333	411.27
319.409	441.12
319.485	434.23
319.561	369.94
319.637	457.19
319.713	374.54
319.789	422.75
319.865	408.98
319.94	413.57
320.016	369.94
320.092	429.64
320.168	390.61
320.244	388.31
320.32	404.38
320.396	404.38
320.472	420.46
320.547	392.9
320.623	390.61
320.699	404.38
320.775	390.61
320.851	448.01
320.926	369.94
321.002	365.35
321.078	376.83
321.154	360.76
321.229	434.23
321.305	358.46
321.381	324.02
321.456	399.79
321.532	363.06
321.608	349.28
321.683	353.87
321.759	399.79
321.835	406.68
321.91	392.9
321.986	395.2
322.061	388.31
322.137	379.13
322.212	395.2
322.288	406.68
322.364	413.57
322.439	408.98
322.515	390.61
322.59	418.16
322.666	381.42
322.741	404.38
322.816	374.54
322.892	397.5
322.967	392.9
323.043	374.54
323.118	358.46
323.193	470.97
323.269	427.34
323.344	438.82
323.42	420.46
323.495	363.06
323.57	418.16
323.646	452.6
323.721	429.64
323.796	434.23
323.871	365.35
323.947	466.38
324.022	436.53
324.097	461.78
324.172	386.02
324.248	415.86
324.323	319.43
324.398	388.31
324.473	381.42
324.548	468.67
324.623	367.65
324.699	411.27
324.774	427.34
324.849	397.5
324.924	418.16
324.999	422.75
325.074	369.94
325.149	374.54
325.224	390.61
325.299	397.5
325.374	482.45
325.449	404.38
325.524	388.31
325.599	411.27
325.674	330.91
325.749	342.39
325.824	431.94
325.899	404.38
325.974	369.94
326.049	436.53
326.124	376.83
326.199	367.65
326.273	381.42
326.348	372.24
326.423	434.23
326.498	436.53
326.573	445.71
326.648	369.94
326.722	429.64
326.797	408.98
326.872	379.13
326.947	356.17
327.021	408.98
327.096	415.86
327.171	429.64
327.245	381.42
327.32	484.75
327.395	337.8
327.47	349.28
327.544	402.09
327.619	457.19
327.693	397.5
327.768	448.01
327.843	408.98
327.917	392.9
327.992	397.5
328.066	344.69
328.141	466.38
328.215	383.72
328.29	448.01
328.364	390.61
328.439	392.9
328.513	402.09
328.588	411.27
328.662	383.72
328.737	438.82
328.811	374.54
328.886	457.19
328.96	388.31
329.035	392.9
329.109	406.68
329.183	392.9
329.258	411.27
329.332	372.24
329.406	429.64
329.481	427.34
329.555	415.86
329.629	480.15
329.704	411.27
329.778	466.38
329.852	406.68
329.926	445.71
330.001	390.61
330.075	420.46
330.149	392.9
330.223	381.42
330.297	411.27
330.372	392.9
330.446	457.19
330.52	420.46
330.594	434.23
330.668	438.82
330.742	443.42
330.816	452.6
330.89	438.82
330.964	395.2
331.038	411.27
331.113	390.61
331.187	395.2
331.261	406.68
331.335	390.61
331.409	443.42
331.483	365.35
331.557	427.34
331.63	418.16
331.704	406.68
331.778	418.16
331.852	475.56
331.926	438.82
332	374.54
332.074	390.61
332.148	392.9
332.222	452.6
332.295	466.38
332.369	470.97
332.443	411.27
332.517	457.19
332.591	436.53
332.665	470.97
332.738	363.06
332.812	402.09
332.886	379.13
332.959	438.82
333.033	445.71
333.107	443.42
333.181	438.82
333.254	395.2
333.328	397.5
333.402	365.35
333.475	390.61
333.549	470.97
333.622	464.08
333.696	436.53
333.77	411.27
333.843	443.42
333.917	418.16
333.99	461.78
334.064	461.78
334.137	448.01
334.211	496.23
334.284	452.6
334.358	408.98
334.431	464.08
334.505	383.72
334.578	454.9
334.652	399.79
334.725	365.35
334.799	365.35
334.872	369.94
334.945	328.62
335.019	457.19
335.092	452.6
335.165	493.93
335.239	408.98
335.312	448.01
335.385	388.31
335.459	294.18
335.532	438.82
335.605	406.68
335.678	429.64
335.752	353.87
335.825	372.24
335.898	374.54
335.971	408.98
336.045	452.6
336.118	406.68
336.191	420.46
336.264	402.09
336.337	420.46
336.41	427.34
336.483	431.94
336.557	374.54
336.63	457.19
336.703	429.64
336.776	365.35
336.849	353.87
336.922	425.05
336.995	415.86
337.068	406.68
337.141	411.27
337.214	438.82
337.287	459.49
337.36	353.87
337.433	431.94
337.506	448.01
337.579	365.35
337.652	386.02
337.725	470.97
337.797	353.87
337.87	388.31
337.943	434.23
338.016	399.79
338.089	404.38
338.162	420.46
338.235	464.08
338.307	487.04
338.38	466.38
338.453	418.16
338.526	443.42
338.598	415.86
338.671	459.49
338.744	406.68
338.817	452.6
338.889	454.9
338.962	372.24
339.035	367.65
339.107	413.57
339.18	464.08
339.253	429.64
339.325	397.5
339.398	454.9
339.47	408.98
339.543	365.35
339.616	457.19
339.688	390.61
339.761	406.68
339.833	484.75
339.906	411.27
339.978	411.27
340.051	420.46
340.123	408.98
340.196	425.05
340.268	461.78
340.341	448.01
340.413	438.82
340.485	452.6
340.558	358.46
340.63	418.16
340.703	452.6
340.775	429.64
340.847	413.57
340.92	408.98
340.992	438.82
341.064	381.42
341.137	397.5
341.209	418.16
341.281	448.01
341.354	369.94
341.426	503.11
341.498	473.26
341.57	415.86
341.643	365.35
341.715	445.71
341.787	443.42
341.859	360.76
341.931	372.24
342.003	452.6
342.076	448.01
342.148	459.49
342.22	445.71
342.292	420.46
342.364	468.67
342.436	397.5
342.508	431.94
342.58	411.27
342.652	434.23
342.724	431.94
342.796	418.16
342.868	408.98
342.94	466.38
343.012	454.9
343.084	399.79
343.156	411.27
343.228	438.82
343.3	365.35
343.372	420.46
343.444	452.6
343.516	475.56
343.588	356.17
343.66	388.31
343.731	388.31
343.803	413.57
343.875	420.46
343.947	438.82
344.019	404.38
344.09	459.49
344.162	422.75
344.234	438.82
344.306	411.27
344.377	427.34
344.449	431.94
344.521	413.57
344.593	420.46
344.664	438.82
344.736	411.27
344.808	408.98
344.879	390.61
344.951	448.01
345.023	443.42
345.094	448.01
345.166	475.56
345.237	448.01
345.309	443.42
345.38	413.57
345.452	489.34
345.524	461.78
345.595	429.64
345.667	422.75
345.738	431.94
345.81	404.38
345.881	431.94
345.953	452.6
346.024	441.12
346.095	422.75
346.167	427.34
346.238	441.12
346.31	459.49
346.381	436.53
346.452	473.26
346.524	512.3
346.595	376.83
346.666	372.24
346.738	429.64
346.809	406.68
346.88	406.68
346.952	505.41
347.023	498.52
347.094	411.27
347.165	441.12
347.237	491.63
347.308	418.16
347.379	404.38
347.45	466.38
347.521	445.71
347.593	411.27
347.664	438.82
347.735	450.3
347.806	411.27
347.877	420.46
347.948	438.82
348.019	443.42
348.09	404.38
348.161	480.15
348.233	448.01
348.304	475.56
348.375	464.08
348.446	422.75
348.517	450.3
348.588	457.19
348.659	434.23
348.73	402.09
348.801	386.02
348.871	363.06
348.942	365.35
349.013	445.71
349.084	466.38
349.155	395.2
349.226	493.93
349.297	406.68
349.368	493.93
349.439	420.46
349.509	431.94
349.58	415.86
349.651	450.3
349.722	406.68
349.793	489.34
349.863	404.38
349.934	523.78
350.005	413.57
350.076	431.94
350.146	464.08
350.217	445.71
350.288	505.41
350.358	468.67
350.429	468.67
350.5	503.11
350.57	425.05
350.641	500.82
350.711	404.38
350.782	464.08
350.853	516.89
350.923	468.67
350.994	457.19
351.064	454.9
351.135	452.6
351.205	431.94
351.276	510
351.346	521.48
351.417	521.48
351.487	510
351.558	473.26
351.628	475.56
351.699	470.97
351.769	470.97
351.84	420.46
351.91	498.52
351.98	443.42
352.051	514.59
352.121	454.9
352.191	489.34
352.262	450.3
352.332	487.04
352.402	468.67
352.473	402.09
352.543	436.53
352.613	496.23
352.683	381.42
352.754	422.75
352.824	466.38
352.894	443.42
352.964	496.23
353.035	448.01
353.105	464.08
353.175	576.59
353.245	441.12
353.315	441.12
353.385	567.4
353.455	493.93
353.526	438.82
353.596	496.23
353.666	514.59
353.736	493.93
353.806	503.11
353.876	599.55
353.946	510
354.016	551.33
354.086	526.07
354.156	558.22
354.226	601.84
354.296	489.34
354.366	560.51
354.436	569.7
354.506	521.48
354.576	585.77
354.645	523.78
354.715	606.43
354.785	606.43
354.855	608.73
354.925	604.14
354.995	624.8
355.065	633.99
355.134	652.35
355.204	633.99
355.274	659.24
355.344	597.25
355.414	656.95
355.483	601.84
355.553	679.91
355.623	604.14
355.693	675.31
355.762	691.39
355.832	778.63
355.902	698.27
355.971	774.04
356.041	746.49
356.111	771.75
356.18	769.45
356.25	735.01
356.319	753.38
356.389	739.6
356.459	753.38
356.528	852.11
356.598	904.91
356.667	836.03
356.737	870.47
356.806	937.06
356.876	1008.24
356.945	985.28
357.015	1042.68
357.084	1017.42
357.154	996.76
357.223	1072.52
357.292	1079.41
357.362	1090.89
357.431	1123.04
357.501	1146
357.57	1141.4
357.639	1265.39
357.709	1269.98
357.778	1354.93
357.847	1329.68
357.917	1354.93
357.986	1421.52
358.055	1497.29
358.124	1531.73
358.194	1697.04
358.263	1577.65
358.332	1646.53
358.401	1781.99
358.471	1710.81
358.54	1876.13
358.609	1926.64
358.678	2039.14
358.747	1933.53
358.816	2126.39
358.886	2007
358.955	2197.57
359.024	2236.6
359.093	2252.67
359.162	2234.3
359.231	2381.25
359.3	2369.77
359.369	2551.15
359.438	2571.82
359.507	2668.25
359.576	2599.37
359.645	2815.19
359.714	2835.86
359.783	2930
359.852	2969.03
359.921	3031.02
359.99	3253.73
360.059	3102.2
360.128	3324.91
360.197	3458.08
360.266	3591.25
360.334	3577.47
360.403	3777.22
360.472	3756.56
360.541	4002.23
360.61	4068.82
360.679	4314.49
360.747	4169.84
360.816	4578.53
360.885	4723.18
360.954	4945.89
361.022	5090.54
361.091	5290.29
361.16	5421.17
361.228	5818.38
361.297	5829.86
361.366	5997.46
361.434	6217.88
361.503	6341.87
361.572	6752.85
361.64	6913.57
361.709	6961.79
361.778	7310.78
361.846	7395.73
361.915	7623.04
361.983	7831.98
362.052	7857.23
362.12	8178.67
362.189	8495.52
362.257	8789.41
362.326	8819.26
362.394	9269.28
362.463	9370.3
362.531	9615.97
362.6	9721.59
362.668	10222.12
362.737	10561.93
362.805	11057.87
362.873	11420.64
362.942	11840.81
363.01	12467.62
363.079	12807.43
363.147	13142.65
363.215	13797.01
363.284	13973.8
363.352	14798.07
363.42	15289.41
363.488	15677.44
363.557	16283.59
363.625	16846.11
363.693	17192.81
363.761	18030.85
363.83	18616.33
363.898	19438.3
363.966	20062.82
364.034	20384.26
364.102	21178.68
364.171	22064.94
364.239	22572.36
364.307	23679.03
364.375	24413.76
364.443	24719.13
364.511	25378.08
364.579	26383.73
364.647	27299.84
364.715	27855.47
364.783	29276.7
364.851	29797.9
364.919	30530.33
364.987	31329.34
365.055	32617.4
365.123	33010.02
365.191	34254.45
365.259	34748.1
365.327	35381.79
365.395	36077.48
365.463	37250.75
365.531	37436.72
365.599	37721.43
365.667	39039.34
365.735	39101.33
365.802	39881.97
365.87	40437.61
365.938	40414.65
366.006	41638.42
366.074	42451.21
366.142	42685.4
366.209	43068.83
366.277	43824.22
366.345	44164.03
366.413	45181.16
366.48	45647.25
366.548	45945.73
366.616	46827.4
366.683	47566.72
366.751	47552.94
366.819	47720.55
366.886	48126.94
366.954	48549.41
367.022	48960.39
367.089	49123.41
367.157	49640.01
367.224	49786.96
367.292	50356.37
367.36	50852.31
367.427	51428.6
367.495	51637.54
367.562	51931.43
367.63	52317.16
367.697	52656.97
367.765	52608.75
367.832	53393.99
367.9	53430.72
367.967	53545.53
368.034	53908.29
368.102	54025.39
368.169	54073.61
368.237	54358.31
368.304	54452.45
368.371	54982.83
368.439	54959.87
368.506	54872.62
368.573	54831.29
368.641	55504.02
368.708	55625.71
368.775	55646.37
368.843	55634.89
368.91	55793.32
368.977	55712.96
369.044	56172.16
369.112	55917.3
369.179	55974.7
369.246	56179.05
369.313	56036.7
369.38	56293.85
369.448	56534.93
369.515	56626.77
369.582	56753.05
369.649	56576.26
369.716	56443.09
369.783	56567.07
369.85	56516.56
369.917	56750.75
369.984	56629.07
370.052	56741.57
370.119	56482.12
370.186	56443.09
370.253	56321.4
370.32	56128.54
370.387	56050.47
370.454	55935.67
370.521	55712.96
370.587	55758.88
370.654	55538.46
370.721	55669.33
370.788	55386.92
370.855	55210.13
370.922	55370.85
370.989	55026.45
371.056	54964.46
371.123	54620.06
371.189	54753.23
371.256	54626.95
371.323	54170.04
371.39	54114.94
371.457	53703.95
371.523	53756.76
371.59	53400.88
371.657	53359.55
371.724	53093.21
371.79	52663.86
371.857	53102.4
371.924	52475.58
371.991	52101.34
372.057	52234.5
372.124	51981.94
372.191	51807.45
372.257	51405.64
372.324	51375.8
372.39	50799.5
372.457	50645.67
372.524	50416.06
372.59	50324.22
372.657	50333.41
372.723	50227.79
372.79	49619.35
372.856	49871.91
372.923	49522.92
372.989	49499.96
373.056	49520.62
373.122	48797.38
373.189	49056.83
373.255	48997.13
373.322	48471.34
373.388	47849.13
373.454	47624.12
373.521	47704.48
373.587	47417.48
373.654	47571.31
373.72	47178.69
373.786	46882.51
373.853	46586.32
373.919	46003.13
373.985	45941.14
374.052	45378.62
374.118	45394.69
374.184	44747.22
374.25	44464.81
374.317	44001.01
374.383	44051.53
374.449	43759.93
374.515	43472.93
374.581	42676.22
374.648	42701.47
374.714	42428.25
374.78	42423.66
374.846	42120.58
374.912	42212.42
374.978	41744.04
375.044	41574.13
375.11	41296.31
375.177	40855.48
375.243	40547.82
375.309	40166.68
375.375	40067.95
375.441	39815.39
375.507	39374.55
375.573	39170.21
375.639	38874.02
375.705	38612.28
375.771	38086.49
375.837	37654.84
375.903	37439.02
375.968	36775.47
376.034	36621.64
376.1	36538.98
376.166	36300.2
376.232	35967.28
376.298	36056.82
376.364	35737.68
376.43	35328.99
376.495	34598.85
376.561	34660.85
376.627	34477.17
376.693	34155.72
376.759	33786.07
376.824	33976.64
376.89	33848.06
376.956	33292.43
377.022	32860.78
377.087	32964.1
377.153	32748.27
377.219	32592.14
377.284	32273
377.35	32520.97
377.416	32250.04
377.481	31715.07
377.547	31499.24
377.613	31235.2
377.678	30812.73
377.744	30466.04
377.809	30270.88
377.875	29979.28
377.94	30146.89
378.006	29632.59
378.071	29471.87
378.137	29375.43
378.202	29067.77
378.268	28904.75
378.333	28675.15
378.399	28479.99
378.464	28482.29
378.53	28479.99
378.595	28186.1
378.661	27570.77
378.726	27602.91
378.791	27203.41
378.857	26868.19
378.922	26849.82
378.987	26505.42
379.053	26342.4
379.118	26289.6
379.183	26039.33
379.249	25750.03
379.314	25417.11
379.379	25522.73
379.444	25102.56
379.51	24884.44
379.575	24693.87
379.64	24634.17
379.705	24195.64
379.771	23713.47
379.836	23536.68
379.901	23059.11
379.966	23148.66
380.031	23022.37
380.096	22579.24
380.161	22604.5
380.227	22407.04
380.292	22283.06
380.357	21791.71
380.422	21470.27
380.487	21601.14
380.552	21075.36
380.617	21128.17
380.682	20969.74
380.747	20404.92
380.812	20191.39
380.877	20152.36
380.942	19734.49
381.007	19782.71
381.072	19725.3
381.137	19449.78
381.202	19112.27
381.266	18894.15
381.331	18483.16
381.396	18499.24
381.461	18173.2
381.526	17840.28
381.591	18056.11
381.656	17539.5
381.72	17679.56
381.785	17259.39
381.85	17300.72
381.915	16747.38
381.979	16694.57
382.044	16719.83
382.109	16536.15
382.174	16382.31
382.238	16262.92
382.303	16180.27
382.368	16290.47
382.432	15624.63
382.497	15734.84
382.562	15638.41
382.626	15454.73
382.691	15294.01
382.756	15296.3
382.82	14763.63
382.885	15018.49
382.949	14674.08
383.014	14561.58
383.078	14462.85
383.143	14596.02
383.208	14120.75
383.272	14233.25
383.337	14008.24
383.401	13898.03
383.465	13725.83
383.53	13682.21
383.594	13425.05
383.659	13330.92
383.723	13303.37
383.788	13360.77
383.852	13025.55
383.916	12814.32
383.981	13085.25
384.045	12740.84
384.109	13167.9
384.174	12596.2
384.238	12348.23
384.302	12286.23
384.367	12182.91
384.431	12139.29
384.495	11987.75
384.56	11886.73
384.624	11781.11
384.688	11762.74
384.752	11615.8
384.816	11581.36
384.881	11567.58
384.945	11418.34
385.009	11436.71
385.073	11110.68
385.137	10906.33
385.201	10991.28
385.265	10681.32
385.33	10892.56
385.394	10715.76
385.458	10623.92
385.522	10463.2
385.586	10410.39
385.65	10460.91
385.714	10357.59
385.778	10265.75
385.842	10088.95
385.906	10031.55
385.97	10020.07
386.034	9824.91
386.098	9609.09
386.162	9902.98
386.226	9441.48
386.29	9308.31
386.354	9508.06
386.417	9161.37
386.481	9115.44
386.545	8826.15
386.609	8901.92
386.673	8927.17
386.737	8672.31
386.8	8649.35
386.864	8660.83
386.928	8610.32
386.992	8564.4
387.056	8403.68
387.119	8240.67
387.183	8252.15
387.247	8185.56
387.31	7974.33
387.374	7990.4
387.438	7994.99
387.502	7914.63
387.565	7848.05
387.629	7751.62
387.692	7430.17
387.756	7620.74
387.82	7469.21
387.883	7354.41
387.947	7306.19
388.01	7246.49
388.074	7184.5
388.138	6902.09
388.201	7000.82
388.265	6830.92
388.328	6677.08
388.392	6617.39
388.455	6683.97
388.519	6520.95
388.582	6408.45
388.645	6323.5
388.709	6316.61
388.772	6183.44
388.836	6272.99
388.899	6109.97
388.962	5972.21
389.026	5981.39
389.089	5804.6
389.153	5901.03
389.216	5809.19
389.279	5731.13
389.343	5698.98
389.406	5616.33
389.469	5448.72
389.532	5361.47
389.596	5542.85
389.659	5356.88
389.722	5265.04
389.785	5161.72
389.848	5232.89
389.912	5177.79
389.975	5092.84
390.038	5046.92
390.101	4959.67
390.164	4879.31
390.227	5035.44
390.291	4888.49
390.354	4810.43
390.417	4716.29
390.48	4716.29
390.543	4665.78
390.606	4775.99
390.669	4626.75
390.732	4608.38
390.795	4562.46
390.858	4578.53
390.921	4266.27
390.984	4397.15
391.047	4387.96
391.11	4346.63
391.173	4365
391.236	4337.45
391.299	4309.9
391.362	4190.5
391.424	4137.7
391.487	4114.74
391.55	4050.45
391.613	3967.79
391.676	3926.46
391.739	3997.64
391.802	3921.87
391.864	3894.32
391.927	3811.66
391.99	3979.27
392.053	3862.18
392.115	3774.93
392.178	3627.98
392.241	3706.05
392.304	3559.1
392.366	3644.05
392.429	3715.23
392.492	3563.69
392.554	3593.54
392.617	3630.28
392.68	3295.06
392.742	3350.16
392.805	3251.44
392.867	3430.53
392.93	3366.24
392.992	3207.81
393.055	3299.65
393.118	3274.4
393.18	3230.77
393.243	3171.08
393.305	3109.08
393.368	3090.72
393.43	2886.37
393.493	3001.17
393.555	2989.69
393.618	2854.23
393.68	2950.66
393.742	3021.84
393.805	2854.23
393.867	2812.9
393.93	2858.82
393.992	2783.05
394.054	2727.95
394.117	2721.06
394.179	2750.91
394.241	2640.7
394.304	2622.33
394.366	2567.23
394.428	2571.82
394.49	2541.97
394.553	2583.3
394.615	2477.68
394.677	2496.05
394.739	2438.65
394.802	2477.68
394.864	2457.02
394.926	2404.21
394.988	2399.62
395.05	2408.8
395.112	2463.91
395.174	2422.58
395.237	2303.18
395.299	2291.7
395.361	2222.82
395.423	2163.13
395.485	2192.98
395.547	2252.67
395.609	2151.65
395.671	2039.14
395.733	2091.95
395.795	2124.1
395.857	2052.92
395.919	2057.51
395.981	1984.04
396.043	2110.32
396.105	1938.12
396.167	1935.82
396.229	1997.82
396.291	1997.82
396.352	1876.13
396.414	1928.94
396.476	1857.76
396.538	1912.86
396.6	1821.02
396.662	1818.73
396.724	1781.99
396.785	1823.32
396.847	1795.77
396.909	1722.29
396.971	1736.07
397.032	1699.33
397.094	1701.63
397.156	1798.06
397.218	1582.24
397.279	1644.23
397.341	1612.09
397.403	1639.64
397.464	1632.75
397.526	1625.86
397.588	1602.9
397.649	1462.85
397.711	1426.11
397.772	1536.32
397.834	1506.47
397.896	1550.09
397.957	1465.14
398.019	1483.51
398.08	1511.06
398.142	1442.18
398.203	1435.29
398.265	1398.56
398.326	1444.48
398.388	1407.74
398.449	1341.16
398.511	1387.08
398.572	1428.4
398.633	1253.91
398.695	1272.28
398.756	1295.24
398.818	1276.87
398.879	1325.08
398.94	1403.15
399.002	1242.43
399.063	1235.54
399.124	1258.5
399.186	1235.54
399.247	1242.43
399.308	1276.87
399.369	1251.61
399.431	1244.72
399.492	1159.77
399.553	1148.29
399.614	1157.48
399.676	1207.99
399.737	1237.84
399.798	1207.99
399.859	1281.46
399.92	1175.84
399.981	1205.69
400.042	1150.59
400.104	1224.06
400.165	1150.59
400.226	1185.03
400.287	1139.11
400.348	1162.07
400.409	1120.74
400.47	1129.92
400.531	1102.37
400.592	1175.84
400.653	1109.26
400.714	1129.92
400.775	1047.27
400.836	1024.31
400.897	941.65
400.958	1022.01
401.019	1047.27
401.08	982.98
401.141	1049.56
401.201	1063.34
401.262	982.98
401.323	964.61
401.384	1019.72
401.445	932.47
401.506	943.95
401.567	1005.94
401.627	932.47
401.688	937.06
401.749	907.21
401.81	916.39
401.87	1049.56
401.931	898.03
401.992	964.61
402.053	1026.6
402.113	980.68
402.174	923.28
402.235	875.07
402.295	840.63
402.356	957.72
402.417	911.8
402.477	879.66
402.538	909.51
402.598	870.47
402.659	877.36
402.719	909.51
402.78	920.99
402.841	863.59
402.901	884.25
402.962	925.58
403.022	900.32
403.083	895.73
403.143	831.44
403.204	858.99
403.264	824.55
403.324	836.03
403.385	838.33
403.445	861.29
403.506	810.78
403.566	856.7
403.627	822.26
403.687	854.4
403.747	888.84
403.808	693.68
403.868	776.34
403.928	792.41
403.989	776.34
404.049	760.27
404.109	838.33
404.169	801.59
404.23	822.26
404.29	764.86
404.35	797
404.41	725.83
404.47	739.6
404.531	783.23
404.591	767.15
404.651	682.2
404.711	753.38
404.771	705.16
404.831	748.79
404.892	705.16
404.952	712.05
405.012	721.23
405.072	718.94
405.132	732.71
405.192	728.12
405.252	746.49
405.312	751.08
405.372	666.13
405.432	686.79
405.492	744.19
405.552	730.42
405.612	741.9
405.672	709.75
405.732	737.31
405.792	753.38
405.852	709.75
405.912	663.83
405.971	725.83
406.031	748.79
406.091	629.39
406.151	744.19
406.211	633.99
406.271	647.76
406.33	659.24
406.39	691.39
406.45	712.05
406.51	615.62
406.57	695.98
406.629	705.16
406.689	643.17
406.749	691.39
406.808	633.99
406.868	650.06
406.928	695.98
406.988	721.23
407.047	689.09
407.107	698.27
407.166	640.87
407.226	668.43
407.286	585.77
407.345	615.62
407.405	689.09
407.464	668.43
407.524	673.02
407.584	705.16
407.643	670.72
407.703	629.39
407.762	585.77
407.822	606.43
407.881	737.31
407.941	638.58
408	594.95
408.059	599.55
408.119	633.99
408.178	698.27
408.238	617.91
408.297	608.73
408.356	652.35
408.416	606.43
408.475	574.29
408.535	588.07
408.594	643.17
408.653	615.62
408.712	624.8
408.772	622.51
408.831	601.84
408.89	643.17
408.95	551.33
409.009	569.7
409.068	576.59
409.127	640.87
409.186	624.8
409.246	629.39
409.305	615.62
409.364	640.87
409.423	645.47
409.482	624.8
409.541	622.51
409.6	611.03
409.66	622.51
409.719	528.37
409.778	652.35
409.837	539.85
409.896	567.4
409.955	526.07
410.014	622.51
410.073	597.25
410.132	562.81
410.191	650.06
410.25	588.07
410.309	590.36
410.368	633.99
410.427	606.43
410.486	576.59
410.545	519.19
410.603	532.96
410.662	560.51
410.721	569.7
410.78	613.32
410.839	567.4
410.898	532.96
410.957	560.51
411.015	528.37
411.074	617.91
411.133	558.22
411.192	565.11
411.25	473.26
411.309	558.22
411.368	532.96
411.427	567.4
411.485	576.59
411.544	530.67
411.603	539.85
411.661	569.7
411.72	503.11
411.779	608.73
411.837	562.81
411.896	521.48
411.955	532.96
412.013	535.26
412.072	569.7
412.13	514.59
412.189	503.11
412.247	505.41
412.306	510
412.364	464.08
412.423	514.59
412.481	484.75
412.54	496.23
412.598	457.19
412.657	526.07
412.715	491.63
412.774	521.48
412.832	551.33
412.891	484.75
412.949	505.41
413.007	503.11
413.066	489.34
413.124	546.74
413.182	493.93
413.241	500.82
413.299	484.75
413.357	459.49
413.416	475.56
413.474	480.15
413.532	530.67
413.59	452.6
413.649	454.9
413.707	429.64
413.765	510
413.823	480.15
413.881	532.96
413.94	425.05
413.998	470.97
414.056	411.27
414.114	436.53
414.172	482.45
414.23	422.75
414.288	468.67
414.347	526.07
414.405	489.34
414.463	475.56
414.521	514.59
414.579	482.45
414.637	505.41
414.695	528.37
414.753	553.63
414.811	431.94
414.869	480.15
414.927	459.49
414.985	429.64
415.043	523.78
415.101	532.96
415.158	477.86
415.216	468.67
415.274	448.01
415.332	441.12
415.39	450.3
415.448	505.41
415.506	441.12
415.563	434.23
415.621	422.75
415.679	491.63
415.737	459.49
415.795	510
415.852	505.41
415.91	450.3
415.968	489.34
416.026	487.04
416.083	438.82
416.141	441.12
416.199	454.9
416.256	459.49
416.314	445.71
416.372	429.64
416.429	441.12
416.487	466.38
416.544	468.67
416.602	448.01
416.66	457.19
416.717	477.86
416.775	466.38
416.832	418.16
416.89	438.82
416.947	461.78
417.005	500.82
417.062	434.23
417.12	434.23
417.177	420.46
417.235	468.67
417.292	512.3
417.35	514.59
417.407	445.71
417.464	461.78
417.522	441.12
417.579	425.05
417.637	436.53
417.694	429.64
417.751	381.42
417.809	459.49
417.866	386.02
417.923	411.27
417.981	411.27
418.038	484.75
418.095	473.26
418.152	477.86
418.21	489.34
418.267	521.48
418.324	425.05
418.381	475.56
418.438	464.08
418.496	445.71
418.553	461.78
418.61	441.12
418.667	434.23
418.724	415.86
418.781	411.27
418.838	386.02
418.895	431.94
418.952	441.12
419.01	422.75
419.067	443.42
419.124	477.86
419.181	491.63
419.238	459.49
419.295	450.3
419.352	353.87
419.409	468.67
419.466	434.23
419.523	519.19
419.579	418.16
419.636	415.86
419.693	445.71
419.75	450.3
419.807	425.05
419.864	461.78
419.921	496.23
419.978	429.64
420.034	441.12
420.091	436.53
420.148	491.63
420.205	386.02
420.262	429.64
420.318	390.61
420.375	356.17
420.432	498.52
420.489	454.9
420.545	429.64
420.602	457.19
420.659	420.46
420.715	390.61
420.772	429.64
420.829	415.86
420.885	411.27
420.942	429.64
420.999	434.23
421.055	448.01
421.112	413.57
421.168	411.27
421.225	425.05
421.282	482.45
421.338	397.5
421.395	381.42
421.451	420.46
421.508	399.79
421.564	420.46
421.621	431.94
421.677	406.68
421.734	420.46
421.79	484.75
421.846	425.05
421.903	519.19
421.959	372.24
422.016	392.9
422.072	443.42
422.128	363.06
422.185	374.54
422.241	365.35
422.297	402.09
422.354	395.2
422.41	425.05
422.466	443.42
422.523	388.31
422.579	388.31
422.635	386.02
422.691	390.61
422.748	496.23
422.804	436.53
422.86	450.3
422.916	496.23
422.972	392.9
423.029	386.02
423.085	411.27
423.141	454.9
423.197	399.79
423.253	425.05
423.309	404.38
423.365	328.62
423.421	374.54
423.477	406.68
423.533	363.06
423.589	413.57
423.645	379.13
423.701	360.76
423.757	353.87
423.813	374.54
423.869	454.9
423.925	367.65
423.981	408.98
424.037	379.13
424.093	397.5
424.149	383.72
424.205	436.53
424.261	383.72
424.317	376.83
424.373	454.9
424.428	480.15
424.484	388.31
424.54	425.05
424.596	344.69
424.652	452.6
424.708	372.24
424.763	390.61
424.819	422.75
424.875	365.35
424.931	358.46
424.986	397.5
425.042	397.5
425.098	386.02
425.153	452.6
425.209	418.16
425.265	376.83
425.32	427.34
425.376	363.06
425.432	413.57
425.487	360.76
425.543	422.75
425.598	392.9
425.654	415.86
425.709	427.34
425.765	431.94
425.82	395.2
425.876	392.9
425.932	413.57
425.987	438.82
426.042	454.9
426.098	427.34
426.153	406.68
426.209	418.16
426.264	415.86
426.32	383.72
426.375	392.9
426.43	441.12
426.486	429.64
426.541	413.57
426.597	466.38
426.652	420.46
426.707	468.67
426.763	443.42
426.818	413.57
426.873	411.27
426.928	498.52
426.984	376.83
427.039	436.53
427.094	445.71
427.149	475.56
427.205	404.38
427.26	390.61
427.315	452.6
427.37	406.68
427.425	374.54
427.48	413.57
427.536	379.13
427.591	408.98
427.646	381.42
427.701	356.17
427.756	431.94
427.811	431.94
427.866	420.46
427.921	374.54
427.976	351.58
428.031	386.02
428.086	422.75
428.141	328.62
428.196	356.17
428.251	418.16
428.306	459.49
428.361	376.83
428.416	406.68
428.471	356.17
428.526	415.86
428.581	418.16
428.636	436.53
428.691	408.98
428.745	438.82
428.8	454.9
428.855	415.86
428.91	360.76
428.965	480.15
429.02	452.6
429.074	475.56
429.129	358.46
429.184	381.42
429.239	330.91
429.293	395.2
429.348	333.21
429.403	404.38
429.457	388.31
429.512	404.38
429.567	358.46
429.621	468.67
429.676	450.3
429.731	390.61
429.785	376.83
429.84	399.79
429.895	340.1
429.949	372.24
430.004	374.54
430.058	413.57
430.113	470.97
430.167	349.28
430.222	402.09
430.276	406.68
430.331	427.34
430.385	468.67
430.44	431.94
430.494	402.09
430.549	386.02
430.603	392.9
430.657	473.26
430.712	372.24
430.766	374.54
430.821	363.06
430.875	356.17
430.929	397.5
430.984	466.38
431.038	388.31
431.092	415.86
431.147	369.94
431.201	464.08
431.255	429.64
431.309	441.12
431.364	422.75
431.418	294.18
431.472	448.01
431.526	397.5
431.581	395.2
431.635	363.06
431.689	418.16
431.743	346.98
431.797	349.28
431.851	436.53
431.906	452.6
431.96	346.98
432.014	411.27
432.068	381.42
432.122	397.5
432.176	408.98
432.23	434.23
432.284	457.19
432.338	425.05
432.392	340.1
432.446	351.58
432.5	418.16
432.554	452.6
432.608	441.12
432.662	367.65
432.716	335.5
432.77	328.62
432.824	381.42
432.878	358.46
432.931	413.57
432.985	425.05
433.039	356.17
433.093	406.68
433.147	441.12
433.201	427.34
433.254	413.57
433.308	369.94
433.362	418.16
433.416	367.65
433.47	351.58
433.523	376.83
433.577	335.5
433.631	388.31
433.684	413.57
433.738	436.53
433.792	427.34
433.846	397.5
433.899	422.75
433.953	404.38
434.006	379.13
434.06	369.94
434.114	422.75
434.167	422.75
434.221	422.75
