Data from FLMS155811_13-12-21-976.txt Node
Date: Wed Mar 25 13:12:21 MDT 2020
User: ECEn Student
Spectrometer: FLMS15581
Trigger mode: 0
Integration Time (sec): 1.000000E-1
Scans to average: 1
Electric dark correction enabled: true
Nonlinearity correction enabled: false
Boxcar width: 0
XAxis mode: Wavelengths
Number of Pixels in Spectrum: 2048
>>>>>Begin Spectral Data<<<<<
298.026	24.25
298.106	24.25
298.185	24.25
298.265	-44.63
298.344	-92.84
298.424	-90.55
298.503	-56.11
298.583	-67.59
298.662	-37.74
298.741	-53.81
298.821	-79.07
298.9	-49.22
298.98	28.84
299.059	-3.3
299.138	-14.78
299.217	17.36
299.297	129.87
299.376	44.92
299.455	56.4
299.535	44.92
299.614	129.87
299.693	118.39
299.772	207.93
299.852	145.94
299.931	189.56
300.01	155.12
300.089	272.22
300.168	327.32
300.247	244.67
300.327	304.36
300.406	244.67
300.485	198.75
300.564	290.59
300.643	322.73
300.722	288.29
300.801	336.51
300.88	400.8
300.959	354.88
301.038	366.36
301.117	366.36
301.196	391.61
301.275	437.53
301.354	382.43
301.433	373.25
301.512	396.21
301.591	428.35
301.67	423.76
301.749	359.47
301.828	442.13
301.907	407.69
301.985	341.1
302.064	357.17
302.143	361.77
302.222	380.13
302.301	384.73
302.38	393.91
302.458	391.61
302.537	389.32
302.616	412.28
302.695	391.61
302.773	432.94
302.852	331.92
302.931	416.87
303.01	414.57
303.088	414.57
303.167	325.03
303.246	384.73
303.324	398.5
303.403	403.09
303.481	407.69
303.56	384.73
303.639	359.47
303.717	398.5
303.796	373.25
303.874	380.13
303.953	359.47
304.032	306.66
304.11	320.44
304.189	382.43
304.267	311.25
304.346	325.03
304.424	407.69
304.502	359.47
304.581	419.17
304.659	373.25
304.738	361.77
304.816	288.29
304.895	306.66
304.973	299.77
305.051	322.73
305.13	320.44
305.208	329.62
305.286	320.44
305.365	382.43
305.443	352.58
305.521	377.84
305.6	359.47
305.678	331.92
305.756	327.32
305.834	347.99
305.913	329.62
305.991	320.44
306.069	393.91
306.147	409.98
306.225	364.06
306.304	391.61
306.382	382.43
306.46	396.21
306.538	364.06
306.616	382.43
306.694	391.61
306.772	331.92
306.85	375.54
306.929	341.1
307.007	409.98
307.085	359.47
307.163	366.36
307.241	290.59
307.319	366.36
307.397	322.73
307.475	347.99
307.553	336.51
307.631	382.43
307.709	322.73
307.786	435.24
307.864	341.1
307.942	377.84
308.02	341.1
308.098	471.97
308.176	292.88
308.254	416.87
308.332	352.58
308.409	366.36
308.487	384.73
308.565	377.84
308.643	366.36
308.721	347.99
308.798	391.61
308.876	428.35
308.954	380.13
309.032	391.61
309.109	364.06
309.187	322.73
309.265	350.28
309.342	421.46
309.42	364.06
309.498	382.43
309.575	320.44
309.653	416.87
309.731	377.84
309.808	377.84
309.886	373.25
309.963	377.84
310.041	389.32
310.119	389.32
310.196	403.09
310.274	451.31
310.351	380.13
310.429	416.87
310.506	375.54
310.584	387.02
310.661	384.73
310.738	325.03
310.816	352.58
310.893	396.21
310.971	439.83
311.048	396.21
311.126	430.65
311.203	320.44
311.28	407.69
311.358	382.43
311.435	430.65
311.512	419.17
311.59	327.32
311.667	462.79
311.744	423.76
311.821	382.43
311.899	345.69
311.976	396.21
312.053	416.87
312.13	366.36
312.208	400.8
312.285	387.02
312.362	403.09
312.439	393.91
312.516	396.21
312.593	391.61
312.671	384.73
312.748	432.94
312.825	373.25
312.902	297.48
312.979	304.36
313.056	368.65
313.133	380.13
313.21	354.88
313.287	361.77
313.364	393.91
313.441	421.46
313.518	407.69
313.595	400.8
313.672	315.84
313.749	336.51
313.826	442.13
313.903	412.28
313.98	387.02
314.057	370.95
314.134	414.57
314.211	361.77
314.287	368.65
314.364	370.95
314.441	380.13
314.518	380.13
314.595	384.73
314.672	426.05
314.748	338.8
314.825	398.5
314.902	366.36
314.979	368.65
315.055	320.44
315.132	387.02
315.209	361.77
315.286	423.76
315.362	393.91
315.439	364.06
315.516	403.09
315.592	393.91
315.669	421.46
315.746	331.92
315.822	391.61
315.899	442.13
315.975	377.84
316.052	414.57
316.128	416.87
316.205	396.21
316.282	393.91
316.358	343.4
316.435	467.38
316.511	393.91
316.588	375.54
316.664	336.51
316.741	375.54
316.817	364.06
316.893	396.21
316.97	391.61
317.046	409.98
317.123	400.8
317.199	382.43
317.275	361.77
317.352	387.02
317.428	308.96
317.504	359.47
317.581	364.06
317.657	426.05
317.733	347.99
317.81	350.28
317.886	435.24
317.962	327.32
318.038	462.79
318.115	364.06
318.191	370.95
318.267	384.73
318.343	387.02
318.419	380.13
318.496	451.31
318.572	375.54
318.648	460.49
318.724	380.13
318.8	421.46
318.876	389.32
318.952	446.72
319.028	403.09
319.105	352.58
319.181	432.94
319.257	357.17
319.333	437.53
319.409	437.53
319.485	384.73
319.561	398.5
319.637	387.02
319.713	396.21
319.789	354.88
319.865	455.9
319.94	449.01
320.016	403.09
320.092	343.4
320.168	382.43
320.244	428.35
320.32	368.65
320.396	396.21
320.472	435.24
320.547	423.76
320.623	354.88
320.699	407.69
320.775	398.5
320.851	384.73
320.926	398.5
321.002	354.88
321.078	430.65
321.154	380.13
321.229	419.17
321.305	375.54
321.381	354.88
321.456	400.8
321.532	403.09
321.608	400.8
321.683	387.02
321.759	400.8
321.835	377.84
321.91	414.57
321.986	497.23
322.061	412.28
322.137	419.17
322.212	389.32
322.288	421.46
322.364	435.24
322.439	405.39
322.515	368.65
322.59	435.24
322.666	428.35
322.741	426.05
322.816	398.5
322.892	407.69
322.967	389.32
323.043	382.43
323.118	471.97
323.193	389.32
323.269	398.5
323.344	347.99
323.42	387.02
323.495	421.46
323.57	444.42
323.646	384.73
323.721	391.61
323.796	366.36
323.871	313.55
323.947	398.5
324.022	373.25
324.097	414.57
324.172	428.35
324.248	389.32
324.323	384.73
324.398	387.02
324.473	416.87
324.548	419.17
324.623	444.42
324.699	428.35
324.774	407.69
324.849	352.58
324.924	409.98
324.999	393.91
325.074	405.39
325.149	366.36
325.224	347.99
325.299	428.35
325.374	442.13
325.449	421.46
325.524	391.61
325.599	391.61
325.674	396.21
325.749	361.77
325.824	409.98
325.899	419.17
325.974	446.72
326.049	384.73
326.124	444.42
326.199	341.1
326.273	396.21
326.348	364.06
326.423	437.53
326.498	407.69
326.573	389.32
326.648	412.28
326.722	396.21
326.797	368.65
326.872	343.4
326.947	384.73
327.021	373.25
327.096	343.4
327.171	352.58
327.245	393.91
327.32	428.35
327.395	391.61
327.47	398.5
327.544	421.46
327.619	474.27
327.693	460.49
327.768	428.35
327.843	439.83
327.917	465.09
327.992	409.98
328.066	412.28
328.141	359.47
328.215	373.25
328.29	414.57
328.364	368.65
328.439	396.21
328.513	439.83
328.588	373.25
328.662	357.17
328.737	435.24
328.811	421.46
328.886	451.31
328.96	400.8
329.035	318.14
329.109	467.38
329.183	414.57
329.258	370.95
329.332	442.13
329.406	451.31
329.481	432.94
329.555	439.83
329.629	370.95
329.704	389.32
329.778	421.46
329.852	389.32
329.926	465.09
330.001	334.21
330.075	384.73
330.149	428.35
330.223	375.54
330.297	428.35
330.372	375.54
330.446	432.94
330.52	364.06
330.594	465.09
330.668	469.68
330.742	419.17
330.816	476.57
330.89	345.69
330.964	419.17
331.038	352.58
331.113	432.94
331.187	327.32
331.261	405.39
331.335	423.76
331.409	416.87
331.483	435.24
331.557	419.17
331.63	403.09
331.704	439.83
331.778	398.5
331.852	412.28
331.926	423.76
332	451.31
332.074	400.8
332.148	435.24
332.222	451.31
332.295	481.16
332.369	435.24
332.443	368.65
332.517	421.46
332.591	444.42
332.665	384.73
332.738	311.25
332.812	398.5
332.886	442.13
332.959	426.05
333.033	465.09
333.107	414.57
333.181	393.91
333.254	393.91
333.328	412.28
333.402	419.17
333.475	407.69
333.549	382.43
333.622	396.21
333.696	432.94
333.77	506.41
333.843	471.97
333.917	354.88
333.99	416.87
334.064	416.87
334.137	412.28
334.211	435.24
334.284	409.98
334.358	407.69
334.431	370.95
334.505	409.98
334.578	412.28
334.652	419.17
334.725	426.05
334.799	458.2
334.872	387.02
334.945	382.43
335.019	387.02
335.092	384.73
335.165	451.31
335.239	421.46
335.312	432.94
335.385	403.09
335.459	423.76
335.532	384.73
335.605	423.76
335.678	481.16
335.752	442.13
335.825	343.4
335.898	364.06
335.971	403.09
336.045	343.4
336.118	444.42
336.191	375.54
336.264	446.72
336.337	465.09
336.41	490.34
336.483	403.09
336.557	419.17
336.63	465.09
336.703	428.35
336.776	439.83
336.849	409.98
336.922	373.25
336.995	437.53
337.068	364.06
337.141	465.09
337.214	419.17
337.287	451.31
337.36	382.43
337.433	469.68
337.506	428.35
337.579	446.72
337.652	435.24
337.725	409.98
337.797	453.61
337.87	373.25
337.943	428.35
338.016	375.54
338.089	460.49
338.162	444.42
338.235	345.69
338.307	387.02
338.38	396.21
338.453	416.87
338.526	426.05
338.598	478.86
338.671	380.13
338.744	416.87
338.817	416.87
338.889	421.46
338.962	453.61
339.035	357.17
339.107	412.28
339.18	416.87
339.253	359.47
339.325	426.05
339.398	391.61
339.47	391.61
339.543	416.87
339.616	375.54
339.688	421.46
339.761	446.72
339.833	414.57
339.906	416.87
339.978	405.39
340.051	437.53
340.123	405.39
340.196	389.32
340.268	416.87
340.341	435.24
340.413	396.21
340.485	449.01
340.558	435.24
340.63	357.17
340.703	407.69
340.775	426.05
340.847	419.17
340.92	449.01
340.992	419.17
341.064	403.09
341.137	444.42
341.209	396.21
341.281	488.05
341.354	474.27
341.426	364.06
341.498	430.65
341.57	430.65
341.643	485.75
341.715	442.13
341.787	368.65
341.859	428.35
341.931	414.57
342.003	396.21
342.076	366.36
342.148	471.97
342.22	419.17
342.292	476.57
342.364	435.24
342.436	442.13
342.508	375.54
342.58	428.35
342.652	442.13
342.724	476.57
342.796	430.65
342.868	446.72
342.94	474.27
343.012	439.83
343.084	364.06
343.156	405.39
343.228	387.02
343.3	400.8
343.372	419.17
343.444	405.39
343.516	407.69
343.588	444.42
343.66	405.39
343.731	396.21
343.803	393.91
343.875	407.69
343.947	389.32
344.019	449.01
344.09	370.95
344.162	474.27
344.234	444.42
344.306	471.97
344.377	414.57
344.449	403.09
344.521	432.94
344.593	444.42
344.664	471.97
344.736	412.28
344.808	419.17
344.879	481.16
344.951	458.2
345.023	471.97
345.094	437.53
345.166	455.9
345.237	416.87
345.309	423.76
345.38	485.75
345.452	478.86
345.524	331.92
345.595	416.87
345.667	343.4
345.738	382.43
345.81	449.01
345.881	462.79
345.953	449.01
346.024	421.46
346.095	451.31
346.167	396.21
346.238	458.2
346.31	465.09
346.381	409.98
346.452	389.32
346.524	435.24
346.595	455.9
346.666	446.72
346.738	442.13
346.809	490.34
346.88	449.01
346.952	451.31
347.023	478.86
347.094	435.24
347.165	421.46
347.237	396.21
347.308	439.83
347.379	430.65
347.45	508.71
347.521	423.76
347.593	407.69
347.664	414.57
347.735	437.53
347.806	527.08
347.877	403.09
347.948	439.83
348.019	476.57
348.09	501.82
348.161	435.24
348.233	474.27
348.304	442.13
348.375	409.98
348.446	543.15
348.517	471.97
348.588	451.31
348.659	412.28
348.73	409.98
348.801	471.97
348.871	403.09
348.942	407.69
349.013	423.76
349.084	465.09
349.155	458.2
349.226	497.23
349.297	439.83
349.368	398.5
349.439	465.09
349.509	442.13
349.58	439.83
349.651	515.6
349.722	412.28
349.793	414.57
349.863	504.12
349.934	382.43
350.005	476.57
350.076	451.31
350.146	439.83
350.217	391.61
350.288	409.98
350.358	414.57
350.429	389.32
350.5	437.53
350.57	442.13
350.641	469.68
350.711	458.2
350.782	453.61
350.853	405.39
350.923	421.46
350.994	550.04
351.064	446.72
351.135	412.28
351.205	467.38
351.276	538.56
351.346	428.35
351.417	492.64
351.487	432.94
351.558	428.35
351.628	465.09
351.699	432.94
351.769	460.49
351.84	421.46
351.91	465.09
351.98	437.53
352.051	444.42
352.121	490.34
352.191	506.41
352.262	423.76
352.332	488.05
352.402	398.5
352.473	426.05
352.543	439.83
352.613	513.3
352.683	481.16
352.754	435.24
352.824	508.71
352.894	442.13
352.964	451.31
353.035	485.75
353.105	444.42
353.175	545.45
353.245	453.61
353.315	522.49
353.385	506.41
353.455	559.22
353.526	550.04
353.596	522.49
353.666	520.19
353.736	494.93
353.806	524.78
353.876	442.13
353.946	451.31
354.016	589.07
354.086	483.45
354.156	494.93
354.226	517.89
354.296	577.59
354.366	540.85
354.436	589.07
354.506	543.15
354.576	550.04
354.645	533.97
354.715	634.99
354.785	540.85
354.855	614.33
354.925	533.97
354.995	586.77
355.065	637.29
355.134	575.29
355.204	644.17
355.274	637.29
355.344	639.58
355.414	595.96
355.483	676.32
355.553	664.84
355.623	660.25
355.693	667.13
355.762	690.09
355.832	754.38
355.902	674.02
355.971	690.09
356.041	731.42
356.111	738.31
356.18	775.05
356.25	775.05
356.319	830.15
356.389	814.08
356.459	802.6
356.528	784.23
356.598	834.74
356.667	834.74
356.737	841.63
356.806	931.18
356.876	995.46
356.945	915.1
357.015	988.58
357.084	961.02
357.154	940.36
357.223	1032.2
357.292	1094.19
357.362	1117.15
357.431	1144.7
357.501	1124.04
357.57	1211.29
357.639	1215.88
357.709	1241.14
357.778	1365.12
357.847	1362.83
357.917	1429.41
357.986	1445.48
358.055	1473.03
358.124	1571.76
358.194	1587.83
358.263	1585.54
358.332	1725.59
358.401	1725.59
358.471	1757.74
358.54	1760.03
358.609	1906.98
358.678	1916.16
358.747	1925.35
358.816	1946.01
358.886	2008
358.955	2200.87
359.024	2141.17
359.093	2196.28
359.162	2357
359.231	2416.69
359.3	2389.14
359.369	2483.28
359.438	2598.08
359.507	2586.6
359.576	2611.85
359.645	2735.84
359.714	2827.68
359.783	2862.12
359.852	3009.06
359.921	3116.98
359.99	3247.85
360.059	3325.91
360.128	3426.94
360.197	3413.16
360.266	3603.73
360.334	3573.88
360.403	3631.28
360.472	3723.12
360.541	3909.1
360.61	3874.66
360.679	4209.88
360.747	4338.45
360.816	4476.21
360.885	4597.9
360.954	4717.3
361.022	5013.48
361.091	5128.28
361.16	5311.96
361.228	5429.06
361.297	5654.07
361.366	6044.39
361.434	6152.3
361.503	6487.52
361.572	6556.4
361.64	6769.93
361.709	7066.11
361.778	7320.97
361.846	7167.14
361.915	7362.3
361.983	7773.28
362.052	7998.29
362.12	8136.05
362.189	8342.69
362.257	8583.78
362.326	8788.12
362.394	9024.61
362.463	9318.5
362.531	9311.61
362.6	9603.2
362.668	9814.44
362.737	10337.93
362.805	10567.53
362.873	11279.29
362.942	11577.77
363.01	11926.77
363.079	12615.57
363.147	13065.59
363.215	13458.2
363.284	13855.41
363.352	14493.7
363.42	14783
363.488	15458.03
363.557	16080.25
363.625	16596.85
363.693	17030.79
363.761	17625.46
363.83	18270.64
363.898	18879.08
363.966	19455.38
364.034	20116.63
364.102	20594.2
364.171	21889.15
364.239	22621.58
364.307	22926.95
364.375	23932.6
364.443	24506.6
364.511	25039.28
364.579	25897.98
364.647	26692.4
364.715	27567.18
364.783	28740.44
364.851	29378.73
364.919	30414.23
364.987	31059.41
365.055	32067.36
365.123	32850.3
365.191	33541.4
365.259	34289.9
365.327	35313.92
365.395	36135.89
365.463	37132.36
365.531	37630.59
365.599	38578.84
365.667	38999.01
365.735	38941.61
365.802	39687.82
365.87	40252.63
365.938	40861.08
366.006	41432.78
366.074	41772.59
366.142	42204.24
366.209	43253.52
366.277	43283.37
366.345	43751.75
366.413	44913.53
366.48	45414.06
366.548	46114.35
366.616	46803.15
366.683	47377.15
366.751	47687.11
366.819	48497.6
366.886	48463.16
366.954	48812.16
367.022	48842.01
367.089	49138.19
367.157	49787.96
367.224	49990.01
367.292	50343.6
367.36	50502.02
367.427	51030.1
367.495	51131.13
367.562	51751.05
367.63	52460.52
367.697	52299.8
367.765	52540.88
367.832	53082.74
367.9	53172.28
367.967	53454.69
368.034	54127.42
368.102	53948.33
368.169	53810.57
368.237	54214.67
368.304	54598.1
368.371	54563.66
368.439	54846.07
368.506	54616.47
368.573	54772.6
368.641	55220.32
368.708	55181.29
368.775	55009.09
368.843	55027.46
368.91	55527.99
368.977	55514.21
369.044	55668.04
369.112	55491.25
369.179	55881.57
369.246	55906.83
369.313	55872.39
369.38	56072.14
369.448	56030.81
369.515	56170.87
369.582	56278.78
369.649	56400.47
369.716	56269.6
369.783	56083.62
369.85	56246.64
369.917	56221.38
369.984	56531.34
370.052	56616.29
370.119	56492.31
370.186	56609.41
370.253	56290.26
370.32	56062.96
370.387	56088.21
370.454	55695.59
370.521	55936.68
370.587	55998.67
370.654	55502.73
370.721	55199.66
370.788	55277.72
370.855	55100.93
370.922	55149.14
370.989	55066.49
371.056	54708.31
371.123	54623.36
371.189	54788.67
371.256	54379.98
371.323	54076.91
371.39	53902.41
371.457	53787.61
371.523	53787.61
371.59	53688.88
371.657	53413.36
371.724	53174.58
371.79	52947.27
371.857	53135.54
371.924	52947.27
371.991	52391.64
372.057	52286.02
372.124	52159.74
372.191	51767.12
372.257	51420.42
372.324	51353.84
372.39	50694.89
372.457	50809.69
372.524	50789.02
372.59	50807.39
372.657	50118.59
372.723	49967.05
372.79	49960.16
372.856	49611.17
372.923	49657.09
372.989	49758.11
373.056	48855.78
373.122	48814.45
373.189	48869.56
373.255	48387.4
373.322	48144.02
373.388	47689.41
373.454	47719.26
373.521	47599.87
373.587	47179.7
373.654	47283.02
373.72	47156.74
373.786	46853.66
373.853	46490.89
373.919	46139.6
373.985	45404.88
374.052	45393.4
374.118	45186.76
374.184	44890.57
374.25	44438.26
374.317	44530.1
374.383	43965.28
374.449	43572.66
374.515	43322.4
374.581	43106.57
374.648	42821.87
374.714	42259.35
374.78	42204.24
374.846	41685.34
374.912	42055
374.978	41223.85
375.044	41391.46
375.11	41391.46
375.177	40732.5
375.243	40390.4
375.309	40273.3
375.375	39786.54
375.441	39492.66
375.507	39435.26
375.573	39295.2
375.639	38549
375.705	38447.97
375.771	37763.76
375.837	37743.1
375.903	37531.86
375.968	37130.06
376.034	36579.02
376.1	36604.28
376.166	36048.64
376.232	35814.45
376.298	35681.28
376.364	34992.48
376.43	34877.68
376.495	34572.31
376.561	34436.84
376.627	34494.24
376.693	33846.77
376.759	33665.38
376.824	33488.59
376.89	33656.2
376.956	32921.48
377.022	33190.11
377.087	32393.39
377.153	32418.65
377.219	32577.07
377.284	32076.54
377.35	31837.76
377.416	31394.63
377.481	31484.17
377.547	31045.64
377.613	30956.09
377.678	30336.17
377.744	30104.27
377.809	30072.13
377.875	29585.37
377.94	29702.47
378.006	29635.89
378.071	28949.38
378.137	29107.8
378.202	28859.84
378.268	28634.83
378.333	28448.85
378.399	28299.61
378.464	28092.97
378.53	27835.82
378.595	27608.51
378.661	27659.02
378.726	27174.56
378.791	27057.47
378.857	26754.39
378.922	26577.6
378.987	26501.83
379.053	26575.31
379.118	26205.65
379.183	26063.3
379.249	25179.33
379.314	25615.57
379.379	25555.88
379.444	25043.87
379.51	24596.15
379.575	24384.91
379.64	24355.06
379.705	23856.83
379.771	23526.21
379.836	23523.91
379.901	22835.11
379.966	22970.57
380.031	22621.58
380.096	22695.05
380.161	22476.93
380.227	22192.22
380.292	21994.77
380.357	21641.18
380.422	21324.33
380.487	21425.36
380.552	21278.41
380.617	21372.55
380.682	20998.3
380.747	20279.65
380.812	20242.91
380.877	20059.23
380.942	19795.19
381.007	19698.76
381.072	19492.12
381.137	19175.27
381.202	19074.24
381.266	18624.22
381.331	18612.74
381.396	18357.89
381.461	18112.21
381.526	17855.06
381.591	17855.06
381.656	17515.25
381.72	17253.51
381.785	17196.11
381.85	16934.36
381.915	16773.64
381.979	16732.31
382.044	16344.29
382.109	16346.58
382.174	16335.1
382.238	16195.05
382.303	16036.62
382.368	15733.55
382.432	15425.88
382.497	15430.48
382.562	15437.36
382.626	15423.59
382.691	15134.29
382.756	14934.54
382.82	14541.92
382.885	14718.71
382.949	14739.38
383.014	14443.19
383.078	14376.61
383.143	14344.46
383.208	14291.65
383.272	13956.44
383.337	13901.33
383.401	13756.68
383.465	13612.04
383.53	13508.72
383.594	13621.22
383.659	13350.29
383.723	13341.11
383.788	12976.04
383.852	12799.25
383.916	12980.63
383.981	12698.22
384.045	12973.75
384.109	12734.96
384.174	12450.26
384.238	12282.65
384.302	12335.45
384.367	12321.68
384.431	11880.84
384.495	12275.76
384.56	11814.26
384.624	11644.36
384.688	11568.59
384.752	11380.31
384.816	11201.23
384.881	11341.28
384.945	11159.9
385.009	11035.91
385.073	11065.76
385.137	10856.82
385.201	10916.52
385.265	10693.81
385.33	10732.84
385.394	10535.38
385.458	10528.5
385.522	10209.35
385.586	10344.81
385.65	10374.66
385.714	10083.07
385.778	10243.79
385.842	9998.12
385.906	10128.99
385.97	10016.49
386.034	9745.56
386.098	9656.01
386.162	9451.67
386.226	9304.72
386.29	9267.99
386.354	9242.73
386.417	9040.68
386.481	9013.13
386.545	9040.68
386.609	8737.61
386.673	8751.38
386.737	8723.83
386.8	8668.73
386.864	8553.93
386.928	8333.51
386.992	8248.56
387.056	8234.78
387.119	8294.48
387.183	8140.65
387.247	8159.01
387.31	8168.2
387.374	7950.08
387.438	8090.13
387.502	7878.9
387.565	7658.48
387.629	7607.97
387.692	7725.07
387.756	7651.6
387.82	7513.83
387.883	7458.73
387.947	7295.71
388.01	7185.51
388.074	7107.44
388.138	7162.55
388.201	6969.68
388.265	6694.16
388.328	6583.95
388.392	6609.21
388.455	6600.02
388.519	6641.35
388.582	6494.41
388.645	6471.45
388.709	6209.7
388.772	6140.82
388.836	6244.14
388.899	6060.46
388.962	5961.73
389.026	5968.62
389.089	5911.22
389.153	5699.99
389.216	5805.6
389.279	5688.51
389.343	5695.4
389.406	5704.58
389.469	5470.39
389.532	5334.92
389.596	5353.29
389.659	5210.94
389.722	5311.96
389.785	5153.54
389.848	5199.46
389.912	5057.1
389.975	5233.9
390.038	4953.78
390.101	4981.34
390.164	4728.78
390.227	4868.83
390.291	4836.69
390.354	4701.22
390.417	4696.63
390.48	4776.99
390.543	4728.78
390.606	4524.43
390.669	4579.53
390.732	4508.36
390.795	4402.74
390.858	4570.35
390.921	4478.51
390.984	4395.85
391.047	4542.8
391.11	4370.6
391.173	4276.46
391.236	4281.05
391.299	4147.88
391.362	4120.33
391.424	4290.24
391.487	4184.62
391.55	4099.67
391.613	3950.43
391.676	3991.76
391.739	4072.12
391.802	3959.61
391.864	3828.74
391.927	3851.7
391.99	3909.1
392.053	3847.11
392.115	3723.12
392.178	3716.23
392.241	3769.04
392.304	3638.17
392.366	3633.58
392.429	3557.81
392.492	3573.88
392.554	3484.34
392.617	3461.38
392.68	3482.04
392.742	3383.31
392.805	3383.31
392.867	3401.68
392.93	3275.4
392.992	3263.92
393.055	3162.9
393.118	3245.55
393.18	3089.42
393.243	3206.52
393.305	3098.61
393.368	3094.02
393.43	3006.77
393.493	3098.61
393.555	3015.95
393.618	2836.86
393.68	2866.71
393.742	2850.64
393.805	2823.09
393.867	2832.27
393.93	2641.7
393.992	2800.13
394.054	2731.25
394.117	2740.43
394.179	2671.55
394.241	2710.58
394.304	2678.44
394.366	2575.12
394.428	2529.2
394.49	2632.52
394.553	2510.83
394.615	2444.25
394.677	2520.01
394.739	2451.13
394.802	2582.01
394.864	2529.2
394.926	2322.56
394.988	2423.58
395.05	2343.22
395.112	2345.52
395.174	2322.56
395.237	2334.04
395.299	2292.71
395.361	2331.74
395.423	2345.52
395.485	2081.48
395.547	2171.02
395.609	2187.09
395.671	2301.89
395.733	2157.24
395.795	2150.36
395.857	2106.73
395.919	2070
395.981	2095.25
396.043	2035.56
396.105	2001.12
396.167	2014.89
396.229	1996.52
396.291	1840.4
396.352	1943.72
396.414	2030.96
396.476	1964.38
396.538	1785.29
396.6	1730.19
396.662	1870.24
396.724	1822.03
396.785	1810.55
396.847	1684.27
396.909	1698.04
396.971	1681.97
397.032	1675.08
397.094	1707.23
397.156	1684.27
397.218	1659.01
397.279	1633.75
397.341	1647.53
397.403	1585.54
397.464	1652.12
397.526	1553.39
397.588	1539.62
397.649	1606.2
397.711	1557.99
397.772	1516.66
397.834	1514.36
397.896	1567.17
397.957	1479.92
398.019	1461.55
398.08	1344.46
398.142	1507.47
398.203	1401.86
398.265	1468.44
398.326	1417.93
398.388	1362.83
398.449	1417.93
398.511	1360.53
398.572	1291.65
398.633	1316.9
398.695	1316.9
398.756	1353.64
398.818	1344.46
398.879	1332.98
398.94	1298.54
399.002	1344.46
399.063	1367.42
399.124	1339.87
399.186	1234.25
399.247	1206.7
399.308	1270.98
399.369	1273.28
399.431	1181.44
399.492	1160.78
399.553	1220.47
399.614	1183.74
399.676	1158.48
399.737	1144.7
399.798	1156.18
399.859	1176.85
399.92	1190.62
399.981	1188.33
400.042	1130.93
400.104	1107.97
400.165	1188.33
400.226	1094.19
400.287	1133.22
400.348	1078.12
400.409	1062.05
400.47	1174.55
400.531	1059.75
400.592	1082.71
400.653	1091.9
400.714	1062.05
400.775	979.39
400.836	1004.65
400.897	1020.72
400.958	1112.56
401.019	1057.46
401.08	910.51
401.141	1023.02
401.201	1032.2
401.262	903.62
401.323	990.87
401.384	940.36
401.445	977.1
401.506	1004.65
401.567	967.91
401.627	1025.31
401.688	903.62
401.749	917.4
401.81	972.5
401.87	894.44
401.931	974.8
401.992	958.73
402.053	942.66
402.113	864.59
402.174	899.03
402.235	816.37
402.295	871.48
402.356	827.85
402.417	866.89
402.477	928.88
402.538	892.14
402.598	928.88
402.659	954.14
402.719	940.36
402.78	921.99
402.841	990.87
402.901	857.7
402.962	887.55
403.022	894.44
403.083	834.74
403.143	919.7
403.204	830.15
403.264	804.89
403.324	770.45
403.385	814.08
403.445	784.23
403.506	843.93
403.566	855.41
403.627	777.34
403.687	814.08
403.747	752.09
403.808	823.26
403.868	710.76
403.928	846.22
403.989	777.34
404.049	763.57
404.109	717.65
404.169	811.78
404.23	784.23
404.29	749.79
404.35	761.27
404.41	733.72
404.47	761.27
404.531	719.94
404.591	662.54
404.651	722.24
404.711	731.42
404.771	768.16
404.831	729.13
404.892	816.37
404.952	667.13
405.012	644.17
405.072	694.69
405.132	756.68
405.192	703.87
405.252	703.87
405.312	701.57
405.372	754.38
405.432	683.21
405.492	676.32
405.552	699.28
405.612	715.35
405.672	742.9
405.732	660.25
405.792	717.65
405.852	715.35
405.912	713.05
405.971	763.57
406.031	621.21
406.091	696.98
406.151	657.95
406.211	736.01
406.271	729.13
406.33	690.09
406.39	726.83
406.45	648.77
406.51	660.25
406.57	692.39
406.629	683.21
406.689	651.06
406.749	575.29
406.808	639.58
406.868	637.29
406.928	715.35
406.988	671.73
407.047	639.58
407.107	676.32
407.166	683.21
407.226	680.91
407.286	701.57
407.345	589.07
407.405	625.81
407.464	660.25
407.524	605.14
407.584	595.96
407.643	614.33
407.703	683.21
407.762	639.58
407.822	657.95
407.881	607.44
407.941	602.85
408	609.73
408.059	731.42
408.119	602.85
408.178	641.88
408.238	680.91
408.297	641.88
408.356	584.48
408.416	579.89
408.475	589.07
408.535	614.33
408.594	529.37
408.653	552.33
408.712	646.47
408.772	605.14
408.831	612.03
408.89	584.48
408.95	637.29
409.009	623.51
409.068	598.25
409.127	625.81
409.186	598.25
409.246	618.92
409.305	556.93
409.364	595.96
409.423	618.92
409.482	614.33
409.541	577.59
409.6	533.97
409.66	607.44
409.719	591.37
409.778	575.29
409.837	570.7
409.896	550.04
409.955	545.45
410.014	577.59
410.073	625.81
410.132	586.77
410.191	547.74
410.25	458.2
410.309	524.78
410.368	568.41
410.427	570.7
410.486	584.48
410.545	497.23
410.603	550.04
410.662	602.85
410.721	573
410.78	515.6
410.839	573
410.898	543.15
410.957	511.01
411.015	504.12
411.074	458.2
411.133	508.71
411.192	531.67
411.25	584.48
411.309	501.82
411.368	529.37
411.427	504.12
411.485	497.23
411.544	492.64
411.603	556.93
411.661	460.49
411.72	501.82
411.779	494.93
411.837	501.82
411.896	400.8
411.955	499.53
412.013	478.86
412.072	538.56
412.13	501.82
412.189	488.05
412.247	522.49
412.306	513.3
412.364	474.27
412.423	465.09
412.481	536.26
412.54	488.05
412.598	520.19
412.657	497.23
412.715	478.86
412.774	513.3
412.832	536.26
412.891	451.31
412.949	536.26
413.007	453.61
413.066	561.52
413.124	504.12
413.182	471.97
413.241	467.38
413.299	421.46
413.357	499.53
413.416	492.64
413.474	407.69
413.532	469.68
413.59	432.94
413.649	439.83
413.707	497.23
413.765	458.2
413.823	449.01
413.881	444.42
413.94	524.78
413.998	471.97
414.056	524.78
414.114	515.6
414.172	527.08
414.23	467.38
414.288	462.79
414.347	444.42
414.405	494.93
414.463	435.24
414.521	492.64
414.579	545.45
414.637	508.71
414.695	478.86
414.753	458.2
414.811	469.68
414.869	494.93
414.927	458.2
414.985	517.89
415.043	474.27
415.101	435.24
415.158	460.49
415.216	428.35
415.274	430.65
415.332	460.49
415.39	453.61
415.448	471.97
415.506	492.64
415.563	432.94
415.621	481.16
415.679	490.34
415.737	416.87
415.795	428.35
415.852	476.57
415.91	426.05
415.968	412.28
416.026	412.28
416.083	497.23
416.141	428.35
416.199	462.79
416.256	488.05
416.314	405.39
416.372	476.57
416.429	442.13
416.487	398.5
416.544	467.38
416.602	499.53
416.66	400.8
416.717	458.2
416.775	403.09
416.832	432.94
416.89	499.53
416.947	446.72
417.005	506.41
417.062	419.17
417.12	403.09
417.177	352.58
417.235	460.49
417.292	490.34
417.35	387.02
417.407	488.05
417.464	403.09
417.522	380.13
417.579	412.28
417.637	458.2
417.694	435.24
417.751	368.65
417.809	462.79
417.866	533.97
417.923	455.9
417.981	370.95
418.038	421.46
418.095	467.38
418.152	504.12
418.21	469.68
418.267	389.32
418.324	455.9
418.381	460.49
418.438	488.05
418.496	421.46
418.553	458.2
418.61	469.68
418.667	398.5
418.724	449.01
418.781	387.02
418.838	465.09
418.895	435.24
418.952	462.79
419.01	428.35
419.067	476.57
419.124	432.94
419.181	384.73
419.238	453.61
419.295	437.53
419.352	405.39
419.409	384.73
419.466	437.53
419.523	430.65
419.579	442.13
419.636	453.61
419.693	423.76
419.75	432.94
419.807	437.53
419.864	462.79
419.921	522.49
419.978	435.24
420.034	462.79
420.091	501.82
420.148	412.28
420.205	432.94
420.262	462.79
420.318	412.28
420.375	432.94
420.432	414.57
420.489	393.91
420.545	430.65
420.602	474.27
420.659	403.09
420.715	435.24
420.772	409.98
420.829	538.56
420.885	428.35
420.942	437.53
420.999	471.97
421.055	391.61
421.112	423.76
421.168	400.8
421.225	382.43
421.282	426.05
421.338	377.84
421.395	412.28
421.451	432.94
421.508	400.8
421.564	471.97
421.621	407.69
421.677	414.57
421.734	407.69
421.79	428.35
421.846	458.2
421.903	416.87
421.959	384.73
422.016	398.5
422.072	469.68
422.128	419.17
422.185	398.5
422.241	437.53
422.297	370.95
422.354	393.91
422.41	455.9
422.466	453.61
422.523	396.21
422.579	458.2
422.635	387.02
422.691	442.13
422.748	513.3
422.804	439.83
422.86	396.21
422.916	329.62
422.972	453.61
423.029	419.17
423.085	409.98
423.141	453.61
423.197	368.65
423.253	366.36
423.309	423.76
423.365	377.84
423.421	370.95
423.477	366.36
423.533	419.17
423.589	421.46
423.645	444.42
423.701	398.5
423.757	400.8
423.813	405.39
423.869	405.39
423.925	315.84
423.981	435.24
424.037	400.8
424.093	343.4
424.149	398.5
424.205	421.46
424.261	375.54
424.317	469.68
424.373	462.79
424.428	384.73
424.484	451.31
424.54	405.39
424.596	435.24
424.652	439.83
424.708	409.98
424.763	403.09
424.819	449.01
424.875	412.28
424.931	400.8
424.986	405.39
425.042	451.31
425.098	432.94
425.153	455.9
425.209	414.57
425.265	347.99
425.32	416.87
425.376	343.4
425.432	359.47
425.487	421.46
425.543	423.76
425.598	347.99
425.654	398.5
425.709	380.13
425.765	350.28
425.82	449.01
425.876	382.43
425.932	412.28
425.987	513.3
426.042	389.32
426.098	368.65
426.153	451.31
426.209	465.09
426.264	382.43
426.32	421.46
426.375	393.91
426.43	407.69
426.486	446.72
426.541	382.43
426.597	414.57
426.652	391.61
426.707	449.01
426.763	377.84
426.818	409.98
426.873	384.73
426.928	377.84
426.984	391.61
427.039	412.28
427.094	400.8
427.149	428.35
427.205	416.87
427.26	409.98
427.315	382.43
427.37	455.9
427.425	474.27
427.48	430.65
427.536	382.43
427.591	405.39
427.646	354.88
427.701	405.39
427.756	405.39
427.811	359.47
427.866	370.95
427.921	368.65
427.976	306.66
428.031	361.77
428.086	416.87
428.141	416.87
428.196	416.87
428.251	279.11
428.306	357.17
428.361	444.42
428.416	439.83
428.471	407.69
428.526	426.05
428.581	364.06
428.636	462.79
428.691	405.39
428.745	389.32
428.8	338.8
428.855	414.57
428.91	384.73
428.965	444.42
429.02	366.36
429.074	423.76
429.129	343.4
429.184	396.21
429.239	416.87
429.293	442.13
429.348	398.5
429.403	380.13
429.457	370.95
429.512	357.17
429.567	398.5
429.621	357.17
429.676	347.99
429.731	380.13
429.785	387.02
429.84	380.13
429.895	423.76
429.949	446.72
430.004	357.17
430.058	444.42
430.113	421.46
430.167	366.36
430.222	345.69
430.276	419.17
430.331	407.69
430.385	364.06
430.44	414.57
430.494	405.39
430.549	387.02
430.603	462.79
430.657	377.84
430.712	421.46
430.766	416.87
430.821	320.44
430.875	389.32
430.929	306.66
430.984	364.06
431.038	357.17
431.092	387.02
431.147	384.73
431.201	366.36
431.255	387.02
431.309	331.92
431.364	380.13
431.418	364.06
431.472	396.21
431.526	403.09
431.581	389.32
431.635	421.46
431.689	350.28
431.743	384.73
431.797	423.76
431.851	398.5
431.906	409.98
431.96	361.77
432.014	455.9
432.068	375.54
432.122	325.03
432.176	359.47
432.23	375.54
432.284	423.76
432.338	396.21
432.392	389.32
432.446	398.5
432.5	391.61
432.554	375.54
432.608	393.91
432.662	398.5
432.716	384.73
432.77	364.06
432.824	364.06
432.878	391.61
432.931	375.54
432.985	373.25
433.039	405.39
433.093	359.47
433.147	387.02
433.201	382.43
433.254	359.47
433.308	370.95
433.362	366.36
433.416	380.13
433.47	396.21
433.523	343.4
433.577	329.62
433.631	405.39
433.684	393.91
433.738	393.91
433.792	430.65
433.846	382.43
433.899	370.95
433.953	341.1
434.006	391.61
434.06	396.21
434.114	368.65
434.167	368.65
434.221	368.65
