Data from FLMS155811_13-12-21-176.txt Node
Date: Wed Mar 25 13:12:21 MDT 2020
User: ECEn Student
Spectrometer: FLMS15581
Trigger mode: 0
Integration Time (sec): 1.000000E-1
Scans to average: 1
Electric dark correction enabled: true
Nonlinearity correction enabled: false
Boxcar width: 0
XAxis mode: Wavelengths
Number of Pixels in Spectrum: 2048
>>>>>Begin Spectral Data<<<<<
298.026	17.79
298.106	17.79
298.185	17.79
298.265	-67.16
298.344	-92.41
298.424	-78.64
298.503	-39.61
298.583	-60.27
298.662	-16.65
298.741	-32.72
298.821	-71.75
298.9	-76.34
298.98	-2.87
299.059	-23.53
299.138	1.72
299.217	4.02
299.297	33.87
299.376	70.6
299.455	52.23
299.535	109.63
299.614	130.3
299.693	84.38
299.772	162.44
299.852	189.99
299.931	169.33
300.01	238.21
300.089	192.29
300.168	212.95
300.247	318.57
300.327	313.98
300.406	265.76
300.485	316.28
300.564	339.24
300.643	369.08
300.722	371.38
300.801	339.24
300.88	332.35
300.959	398.93
301.038	362.2
301.117	359.9
301.196	380.56
301.275	293.32
301.354	415
301.433	387.45
301.512	375.97
301.591	359.9
301.67	348.42
301.749	357.6
301.828	375.97
301.907	348.42
301.985	385.16
302.064	435.67
302.143	389.75
302.222	398.93
302.301	389.75
302.38	343.83
302.458	447.15
302.537	355.31
302.616	401.23
302.695	401.23
302.773	350.72
302.852	355.31
302.931	382.86
303.01	332.35
303.088	336.94
303.167	284.13
303.246	355.31
303.324	410.41
303.403	398.93
303.481	327.76
303.56	316.28
303.639	382.86
303.717	318.57
303.796	369.08
303.874	350.72
303.953	387.45
304.032	392.04
304.11	336.94
304.189	398.93
304.267	343.83
304.346	307.09
304.424	382.86
304.502	350.72
304.581	373.68
304.659	318.57
304.738	355.31
304.816	318.57
304.895	330.05
304.973	332.35
305.051	355.31
305.13	350.72
305.208	401.23
305.286	398.93
305.365	371.38
305.443	327.76
305.521	274.95
305.6	350.72
305.678	359.9
305.756	359.9
305.834	378.27
305.913	366.79
305.991	371.38
306.069	343.83
306.147	398.93
306.225	293.32
306.304	408.12
306.382	272.65
306.46	359.9
306.538	336.94
306.616	348.42
306.694	304.8
306.772	346.12
306.85	325.46
306.929	378.27
307.007	380.56
307.085	320.87
307.163	364.49
307.241	323.16
307.319	403.52
307.397	332.35
307.475	398.93
307.553	410.41
307.631	380.56
307.709	412.71
307.786	330.05
307.864	323.16
307.942	341.53
308.02	272.65
308.098	325.46
308.176	463.22
308.254	435.67
308.332	339.24
308.409	364.49
308.487	392.04
308.565	332.35
308.643	336.94
308.721	334.64
308.798	359.9
308.876	304.8
308.954	348.42
309.032	309.39
309.109	405.82
309.187	348.42
309.265	339.24
309.342	366.79
309.42	378.27
309.498	357.6
309.575	357.6
309.653	371.38
309.731	320.87
309.808	394.34
309.886	357.6
309.963	380.56
310.041	387.45
310.119	325.46
310.196	307.09
310.274	380.56
310.351	346.12
310.429	362.2
310.506	392.04
310.584	332.35
310.661	313.98
310.738	350.72
310.816	346.12
310.893	419.6
310.971	339.24
311.048	343.83
311.126	408.12
311.203	364.49
311.28	346.12
311.358	320.87
311.435	355.31
311.512	364.49
311.59	378.27
311.667	369.08
311.744	408.12
311.821	442.56
311.899	373.68
311.976	385.16
312.053	362.2
312.13	410.41
312.208	380.56
312.285	415
312.362	421.89
312.439	323.16
312.516	378.27
312.593	323.16
312.671	389.75
312.748	343.83
312.825	389.75
312.902	320.87
312.979	389.75
313.056	350.72
313.133	410.41
313.21	447.15
313.287	389.75
313.364	387.45
313.441	362.2
313.518	373.68
313.595	359.9
313.672	341.53
313.749	375.97
313.826	318.57
313.903	341.53
313.98	449.44
314.057	403.52
314.134	440.26
314.211	327.76
314.287	398.93
314.364	375.97
314.441	403.52
314.518	366.79
314.595	405.82
314.672	346.12
314.748	366.79
314.825	348.42
314.902	417.3
314.979	403.52
315.055	350.72
315.132	288.72
315.209	371.38
315.286	419.6
315.362	375.97
315.439	366.79
315.516	341.53
315.592	364.49
315.669	346.12
315.746	385.16
315.822	270.36
315.899	394.34
315.975	405.82
316.052	373.68
316.128	394.34
316.205	405.82
316.282	389.75
316.358	394.34
316.435	401.23
316.511	408.12
316.588	362.2
316.664	373.68
316.741	417.3
316.817	263.47
316.893	442.56
316.97	350.72
317.046	387.45
317.123	323.16
317.199	369.08
317.275	375.97
317.352	357.6
317.428	398.93
317.504	380.56
317.581	339.24
317.657	380.56
317.733	371.38
317.81	382.86
317.886	437.96
317.962	417.3
318.038	401.23
318.115	369.08
318.191	382.86
318.267	313.98
318.343	364.49
318.419	410.41
318.496	435.67
318.572	424.19
318.648	375.97
318.724	359.9
318.8	382.86
318.876	419.6
318.952	444.85
319.028	380.56
319.105	385.16
319.181	405.82
319.257	327.76
319.333	373.68
319.409	373.68
319.485	366.79
319.561	371.38
319.637	382.86
319.713	419.6
319.789	378.27
319.865	398.93
319.94	387.45
320.016	433.37
320.092	392.04
320.168	421.89
320.244	350.72
320.32	412.71
320.396	375.97
320.472	378.27
320.547	357.6
320.623	366.79
320.699	362.2
320.775	311.68
320.851	385.16
320.926	435.67
321.002	375.97
321.078	396.64
321.154	348.42
321.229	297.91
321.305	382.86
321.381	412.71
321.456	421.89
321.532	435.67
321.608	369.08
321.683	419.6
321.759	417.3
321.835	343.83
321.91	346.12
321.986	366.79
322.061	364.49
322.137	373.68
322.212	346.12
322.288	410.41
322.364	375.97
322.439	373.68
322.515	419.6
322.59	392.04
322.666	401.23
322.741	334.64
322.816	396.64
322.892	332.35
322.967	442.56
323.043	401.23
323.118	387.45
323.193	371.38
323.269	426.48
323.344	412.71
323.42	373.68
323.495	339.24
323.57	382.86
323.646	378.27
323.721	334.64
323.796	419.6
323.871	394.34
323.947	401.23
324.022	403.52
324.097	336.94
324.172	373.68
324.248	330.05
324.323	410.41
324.398	408.12
324.473	387.45
324.548	387.45
324.623	375.97
324.699	460.92
324.774	410.41
324.849	375.97
324.924	398.93
324.999	426.48
325.074	417.3
325.149	424.19
325.224	449.44
325.299	369.08
325.374	460.92
325.449	392.04
325.524	389.75
325.599	398.93
325.674	477
325.749	440.26
325.824	428.78
325.899	392.04
325.974	382.86
326.049	454.04
326.124	371.38
326.199	359.9
326.273	378.27
326.348	392.04
326.423	415
326.498	447.15
326.573	348.42
326.648	444.85
326.722	405.82
326.797	421.89
326.872	359.9
326.947	403.52
327.021	382.86
327.096	375.97
327.171	394.34
327.245	431.08
327.32	385.16
327.395	387.45
327.47	389.75
327.544	394.34
327.619	477
327.693	426.48
327.768	343.83
327.843	415
327.917	412.71
327.992	389.75
328.066	364.49
328.141	369.08
328.215	403.52
328.29	403.52
328.364	405.82
328.439	355.31
328.513	431.08
328.588	435.67
328.662	385.16
328.737	389.75
328.811	382.86
328.886	366.79
328.96	401.23
329.035	371.38
329.109	424.19
329.183	355.31
329.258	362.2
329.332	410.41
329.406	460.92
329.481	408.12
329.555	424.19
329.629	419.6
329.704	387.45
329.778	371.38
329.852	378.27
329.926	348.42
330.001	465.52
330.075	366.79
330.149	392.04
330.223	431.08
330.297	431.08
330.372	442.56
330.446	398.93
330.52	437.96
330.594	380.56
330.668	408.12
330.742	417.3
330.816	428.78
330.89	401.23
330.964	433.37
331.038	405.82
331.113	437.96
331.187	442.56
331.261	387.45
331.335	440.26
331.409	394.34
331.483	424.19
331.557	426.48
331.63	417.3
331.704	463.22
331.778	440.26
331.852	357.6
331.926	346.12
332	415
332.074	460.92
332.148	421.89
332.222	403.52
332.295	364.49
332.369	398.93
332.443	380.56
332.517	408.12
332.591	339.24
332.665	451.74
332.738	401.23
332.812	410.41
332.886	419.6
332.959	403.52
333.033	444.85
333.107	410.41
333.181	405.82
333.254	378.27
333.328	394.34
333.402	415
333.475	415
333.549	325.46
333.622	398.93
333.696	444.85
333.77	440.26
333.843	380.56
333.917	479.29
333.99	387.45
334.064	350.72
334.137	454.04
334.211	378.27
334.284	449.44
334.358	371.38
334.431	394.34
334.505	424.19
334.578	412.71
334.652	389.75
334.725	382.86
334.799	408.12
334.872	412.71
334.945	421.89
335.019	410.41
335.092	493.07
335.165	415
335.239	375.97
335.312	357.6
335.385	405.82
335.459	428.78
335.532	339.24
335.605	417.3
335.678	385.16
335.752	366.79
335.825	355.31
335.898	371.38
335.971	428.78
336.045	417.3
336.118	398.93
336.191	387.45
336.264	313.98
336.337	433.37
336.41	424.19
336.483	424.19
336.557	339.24
336.63	426.48
336.703	357.6
336.776	398.93
336.849	394.34
336.922	421.89
336.995	364.49
337.068	421.89
337.141	428.78
337.214	412.71
337.287	440.26
337.36	456.33
337.433	408.12
337.506	405.82
337.579	357.6
337.652	435.67
337.725	355.31
337.797	460.92
337.87	440.26
337.943	421.89
338.016	373.68
338.089	401.23
338.162	417.3
338.235	348.42
338.307	389.75
338.38	387.45
338.453	451.74
338.526	410.41
338.598	380.56
338.671	346.12
338.744	440.26
338.817	403.52
338.889	327.76
338.962	382.86
339.035	442.56
339.107	408.12
339.18	375.97
339.253	419.6
339.325	396.64
339.398	435.67
339.47	396.64
339.543	458.63
339.616	387.45
339.688	431.08
339.761	359.9
339.833	375.97
339.906	444.85
339.978	412.71
340.051	426.48
340.123	380.56
340.196	449.44
340.268	470.11
340.341	440.26
340.413	415
340.485	364.49
340.558	394.34
340.63	371.38
340.703	343.83
340.775	394.34
340.847	405.82
340.92	421.89
340.992	470.11
341.064	415
341.137	362.2
341.209	440.26
341.281	444.85
341.354	362.2
341.426	527.51
341.498	415
341.57	444.85
341.643	433.37
341.715	392.04
341.787	401.23
341.859	421.89
341.931	415
342.003	435.67
342.076	442.56
342.148	437.96
342.22	449.44
342.292	435.67
342.364	336.94
342.436	421.89
342.508	460.92
342.58	408.12
342.652	410.41
342.724	387.45
342.796	454.04
342.868	440.26
342.94	382.86
343.012	488.48
343.084	412.71
343.156	373.68
343.228	440.26
343.3	451.74
343.372	426.48
343.444	408.12
343.516	470.11
343.588	389.75
343.66	343.83
343.731	341.53
343.803	341.53
343.875	431.08
343.947	428.78
344.019	392.04
344.09	412.71
344.162	426.48
344.234	440.26
344.306	437.96
344.377	410.41
344.449	412.71
344.521	369.08
344.593	412.71
344.664	437.96
344.736	428.78
344.808	408.12
344.879	362.2
344.951	389.75
345.023	451.74
345.094	437.96
345.166	465.52
345.237	465.52
345.309	373.68
345.38	440.26
345.452	415
345.524	378.27
345.595	424.19
345.667	419.6
345.738	463.22
345.81	431.08
345.881	412.71
345.953	408.12
346.024	392.04
346.095	460.92
346.167	421.89
346.238	431.08
346.31	405.82
346.381	369.08
346.452	472.4
346.524	454.04
346.595	421.89
346.666	408.12
346.738	454.04
346.809	433.37
346.88	373.68
346.952	375.97
347.023	415
347.094	405.82
347.165	426.48
347.237	369.08
347.308	449.44
347.379	371.38
347.45	403.52
347.521	447.15
347.593	412.71
347.664	417.3
347.735	415
347.806	486.18
347.877	382.86
347.948	481.59
348.019	451.74
348.09	440.26
348.161	408.12
348.233	401.23
348.304	447.15
348.375	444.85
348.446	444.85
348.517	405.82
348.588	465.52
348.659	460.92
348.73	460.92
348.801	428.78
348.871	444.85
348.942	419.6
349.013	417.3
349.084	504.55
349.155	479.29
349.226	415
349.297	396.64
349.368	465.52
349.439	454.04
349.509	449.44
349.58	463.22
349.651	449.44
349.722	419.6
349.793	470.11
349.863	467.81
349.934	419.6
350.005	444.85
350.076	433.37
350.146	463.22
350.217	440.26
350.288	465.52
350.358	465.52
350.429	412.71
350.5	470.11
350.57	435.67
350.641	497.66
350.711	460.92
350.782	504.55
350.853	435.67
350.923	460.92
350.994	440.26
351.064	472.4
351.135	435.67
351.205	442.56
351.276	458.63
351.346	421.89
351.417	410.41
351.487	474.7
351.558	458.63
351.628	444.85
351.699	481.59
351.769	433.37
351.84	488.48
351.91	454.04
351.98	428.78
352.051	451.74
352.121	472.4
352.191	509.14
352.262	456.33
352.332	470.11
352.402	431.08
352.473	474.7
352.543	493.07
352.613	419.6
352.683	513.73
352.754	380.56
352.824	460.92
352.894	479.29
352.964	497.66
353.035	440.26
353.105	419.6
353.175	555.06
353.245	444.85
353.315	509.14
353.385	504.55
353.455	465.52
353.526	470.11
353.596	529.8
353.666	437.96
353.736	564.24
353.806	488.48
353.876	532.1
353.946	525.21
354.016	465.52
354.086	516.03
354.156	568.84
354.226	495.36
354.296	518.32
354.366	589.5
354.436	472.4
354.506	587.2
354.576	518.32
354.645	497.66
354.715	587.2
354.785	653.79
354.855	564.24
354.925	644.6
354.995	610.16
355.065	633.12
355.134	596.39
355.204	667.56
355.274	559.65
355.344	635.42
355.414	587.2
355.483	614.76
355.553	681.34
355.623	665.27
355.693	665.27
355.762	623.94
355.832	706.6
355.902	683.64
355.971	708.89
356.041	736.45
356.111	743.33
356.18	770.89
356.25	777.77
356.319	752.52
356.389	789.25
356.459	839.77
356.528	835.17
356.598	901.76
356.667	803.03
356.737	848.95
356.806	878.8
356.876	876.5
356.945	991.3
357.015	906.35
357.084	952.27
357.154	1039.52
357.223	1021.15
357.292	1124.47
357.362	1094.62
357.431	1191.05
357.501	1207.13
357.57	1197.94
357.639	1269.12
357.709	1317.34
357.778	1305.86
357.847	1393.1
357.917	1383.92
357.986	1381.62
358.055	1448.21
358.124	1482.65
358.194	1567.6
358.263	1590.56
358.332	1636.48
358.401	1604.34
358.471	1691.59
358.54	1824.75
358.609	1886.75
358.678	1914.3
358.747	2031.39
358.816	1923.48
358.886	2081.91
358.955	2178.34
359.024	2339.06
359.093	2148.49
359.162	2233.44
359.231	2403.35
359.3	2378.09
359.369	2490.6
359.438	2474.52
359.507	2525.04
359.576	2623.76
359.645	2750.05
359.714	2777.6
359.783	2857.96
359.852	3066.89
359.921	3064.6
359.99	3257.46
360.059	3252.87
360.128	3273.54
360.197	3452.62
360.266	3528.39
360.334	3413.59
360.403	3741.92
360.472	3863.61
360.541	3934.79
360.61	3957.75
360.679	4129.95
360.747	4221.79
360.816	4524.86
360.885	4607.52
360.954	4990.95
361.022	4984.06
361.091	5126.42
361.16	5287.14
361.228	5502.96
361.297	5714.19
361.366	5916.24
361.434	6074.67
361.503	6467.28
361.572	6588.97
361.64	6625.71
361.709	6832.35
361.778	7160.68
361.846	7424.72
361.915	7569.37
361.983	7780.6
362.052	7966.58
362.12	8313.28
362.189	8464.81
362.257	8444.15
362.326	8705.89
362.394	9171.98
362.463	9169.69
362.531	9410.77
362.6	9654.15
362.668	10207.48
362.737	10398.05
362.805	10788.37
362.873	10967.46
362.942	11543.76
363.01	12064.96
363.079	12627.48
363.147	13001.73
363.215	13522.92
363.284	13963.76
363.352	14645.67
363.42	14808.69
363.488	15467.64
363.557	16271.25
363.625	16767.18
363.693	17212.61
363.761	17942.74
363.83	18362.91
363.898	19008.09
363.966	19549.95
364.034	20075.73
364.102	20877.04
364.171	21561.25
364.239	22080.15
364.307	23264.89
364.375	23620.77
364.443	24507.03
364.511	25170.58
364.579	26095.87
364.647	27046.42
364.715	27611.24
364.783	28655.92
364.851	29615.65
364.919	30093.22
364.987	31124.13
365.055	32205.55
365.123	32956.35
365.191	33417.84
365.259	34474.01
365.327	35454.41
365.395	35828.65
365.463	36365.92
365.531	37683.83
365.599	38014.46
365.667	39332.37
365.735	39256.6
365.802	40048.72
365.87	40372.46
365.938	40859.21
366.006	41311.53
366.074	42193.19
366.142	42569.74
366.209	43086.34
366.277	43761.37
366.345	44275.67
366.413	44978.25
366.48	45547.66
366.548	45926.5
366.616	46502.8
366.683	47526.82
366.751	47395.95
366.819	47754.13
366.886	48484.26
366.954	48773.56
367.022	48573.8
367.089	49342.97
367.157	49691.96
367.224	50079.99
367.292	50477.2
367.36	50245.3
367.427	51285.39
367.495	51441.52
367.562	51746.89
367.63	52454.06
367.697	52173.95
367.765	52646.92
367.832	53216.33
367.9	53200.26
367.967	53406.9
368.034	54120.96
368.102	53934.99
368.169	53746.71
368.237	54238.06
368.304	54244.95
368.371	54272.5
368.439	54669.71
368.506	54653.64
368.573	54775.33
368.641	55064.62
368.708	55128.91
368.775	54894.72
368.843	55112.84
368.91	55567.45
368.977	55441.17
369.044	55923.33
369.112	55709.8
369.179	55668.47
369.246	55973.84
369.313	55891.19
369.38	55865.93
369.448	56150.64
369.515	55941.7
369.582	56019.76
369.649	56478.96
369.716	56260.84
369.783	56274.62
369.85	56012.87
369.917	56304.47
369.984	56400.9
370.052	56352.68
370.119	56451.41
370.186	56407.79
370.253	56313.65
370.32	56049.61
370.387	55815.42
370.454	55950.88
370.521	55714.39
370.587	55803.94
370.654	55438.87
370.721	55519.23
370.788	55351.62
370.855	55289.63
370.922	55158.76
370.989	54940.64
371.056	54745.48
371.123	54717.93
371.189	54373.52
371.256	54327.6
371.323	54130.15
371.39	53918.91
371.457	53698.5
371.523	53962.54
371.59	53475.78
371.657	53501.04
371.724	53303.58
371.79	52605.6
371.857	52617.08
371.924	52984.44
371.991	52470.13
372.057	52100.47
372.124	52137.21
372.191	51751.48
372.257	51572.39
372.324	51613.72
372.39	51104.01
372.457	50764.2
372.524	50681.54
372.59	50601.18
372.657	50428.98
372.723	50008.81
372.79	49453.18
372.856	49696.55
372.923	49806.76
372.989	49078.93
373.056	48830.96
373.122	48603.65
373.189	48757.48
373.255	48794.22
373.322	48068.68
373.388	47944.7
373.454	47669.18
373.521	47871.22
373.587	47200.79
373.654	47301.81
373.72	47033.18
373.786	46918.38
373.853	45958.65
373.919	46082.63
373.985	45481.08
374.052	45308.88
374.118	45251.48
374.184	45037.95
374.25	44420.32
374.317	44133.32
374.383	44117.25
374.449	43945.05
374.515	43132.26
374.581	42895.77
374.648	42473.31
374.714	42418.2
374.78	41846.5
374.846	41835.02
374.912	41761.54
374.978	41743.18
375.044	41564.09
375.11	40884.47
375.177	40556.14
375.243	40422.97
375.309	39830.6
375.375	39906.37
375.441	39557.37
375.507	39417.32
375.573	39144.09
375.639	38779.03
375.705	38053.49
375.771	38241.76
375.837	37295.8
375.903	37745.82
375.968	37210.85
376.034	36760.83
376.1	36845.79
376.166	36409.55
376.232	35674.82
376.298	35351.08
376.364	35461.29
376.43	35008.98
376.495	34267.37
376.561	34322.47
376.627	34297.22
376.693	34049.25
376.759	33723.21
376.824	33957.41
376.89	33475.24
376.956	33188.24
377.022	33096.4
377.087	32850.73
377.153	32412.19
377.219	32423.67
377.284	32228.51
377.35	31760.13
377.416	31463.94
377.481	31298.63
377.547	30837.13
377.613	30945.04
377.678	30375.63
377.744	30283.79
377.809	30113.89
377.875	29849.85
377.94	29753.41
378.006	29578.92
378.071	29317.17
378.137	29076.09
378.202	29282.73
378.268	28632.96
378.333	28224.27
378.399	28185.24
378.464	28345.96
378.53	27870.69
378.595	27535.47
378.661	27574.5
378.726	27344.9
378.791	26713.5
378.857	26589.51
378.922	27060.19
378.987	26699.72
379.053	26286.44
379.118	26277.26
379.183	25912.19
379.249	25717.03
379.314	25384.11
379.379	24837.66
379.444	24980.01
379.51	24885.87
379.575	24181
379.64	24507.03
379.705	24238.4
379.771	24029.46
379.836	23356.73
379.901	23276.37
379.966	23145.5
380.031	22927.38
380.096	22525.58
380.161	22679.41
380.227	22227.09
380.292	22114.59
380.357	21487.78
380.422	21767.89
380.487	21515.33
380.552	20994.14
380.617	21434.97
380.682	20900
380.747	20741.58
380.812	20156.09
380.877	19676.23
380.942	19708.37
381.007	19903.53
381.072	19554.54
381.137	19168.81
381.202	18902.47
381.266	18918.54
381.331	18468.53
381.396	18440.97
381.461	17945.04
381.526	17885.34
381.591	17908.3
381.656	17531.75
381.72	17614.41
381.785	17325.11
381.85	17299.86
381.915	16989.9
381.979	16797.03
382.044	16627.13
382.109	16418.19
382.174	16321.76
382.238	16144.97
382.303	16122
382.368	15513.56
382.432	15669.69
382.497	15446.98
382.562	15249.52
382.626	15380.39
382.691	15341.36
382.756	15065.84
382.82	14817.87
382.885	14801.8
382.949	14852.31
383.014	14856.9
383.078	14572.2
383.143	14494.13
383.208	14383.93
383.272	13959.16
383.337	14269.13
383.401	13842.07
383.465	13504.55
383.53	13196.89
383.594	13504.55
383.659	13254.29
383.723	13128.01
383.788	13047.65
383.852	13054.54
383.916	12868.56
383.981	12948.92
384.045	12813.46
384.109	12574.67
384.174	12533.34
384.238	12329
384.302	12365.73
384.367	12131.54
384.431	12163.68
384.495	11881.28
384.56	11826.17
384.624	11986.89
384.688	11699.89
384.752	11702.19
384.816	11449.63
384.881	11316.46
384.945	11194.77
385.009	11158.03
385.073	11259.06
385.137	10903.18
385.201	10822.81
385.265	10827.41
385.33	10579.44
385.394	10588.62
385.458	10588.62
385.522	10393.46
385.586	10542.7
385.65	10395.76
385.714	10212.08
385.778	10368.21
385.842	9888.34
385.906	10069.72
385.97	9844.71
386.034	9817.16
386.098	9541.64
386.162	9452.1
386.226	9488.83
386.29	9233.98
386.354	9316.63
386.417	9100.81
386.481	9123.77
386.545	8903.35
386.609	8790.85
386.673	8740.33
386.737	8894.17
386.8	8800.03
386.864	8529.1
386.928	8301.8
386.992	8455.63
387.056	8207.66
387.119	8164.04
387.183	8216.84
387.247	8053.83
387.31	7899.99
387.374	7867.85
387.438	7998.72
387.502	7964.28
387.565	7663.51
387.629	7746.16
387.692	7753.05
387.756	7640.55
387.82	7204.3
387.883	7179.05
387.947	7261.7
388.01	7222.67
388.074	7103.28
388.138	7105.58
388.201	6986.18
388.265	6811.69
388.328	6788.73
388.392	6577.49
388.455	6361.67
388.519	6416.77
388.582	6444.32
388.645	6391.52
388.709	6295.08
388.772	6269.83
388.836	6086.15
388.899	6086.15
388.962	5964.46
389.026	6035.64
389.089	6031.04
389.153	5806.03
389.216	5819.81
389.279	5640.72
389.343	5656.79
389.406	5737.15
389.469	5385.86
389.532	5489.18
389.596	5422.6
389.659	5321.58
389.722	5356.02
389.785	5135.6
389.848	5351.42
389.912	5016.21
389.975	4979.47
390.038	5096.57
390.101	4926.66
390.164	4910.59
390.227	4765.94
390.291	4834.82
390.354	4853.19
390.417	4648.85
390.48	4717.73
390.543	4517.97
390.606	4639.66
390.669	4529.45
390.732	4559.3
390.795	4616.7
390.858	4554.71
390.921	4315.92
390.984	4403.17
391.047	4230.97
391.11	4299.85
391.173	4205.72
391.236	4191.94
391.299	4286.08
391.362	4175.87
391.424	4141.43
391.487	3948.56
391.55	4061.07
391.613	3909.53
391.676	3955.45
391.739	3879.68
391.802	3888.87
391.864	3907.23
391.927	3914.12
391.99	3836.06
392.053	3831.47
392.115	3702.89
392.178	3712.07
392.241	3751.11
392.304	3656.97
392.366	3475.58
392.429	3572.02
392.492	3503.14
392.554	3491.66
392.617	3457.22
392.68	3363.08
392.742	3388.34
392.805	3353.9
392.867	3342.42
392.93	3271.24
392.992	3259.76
393.055	3296.5
393.118	3296.5
393.18	3190.88
393.243	3163.33
393.305	3085.26
393.368	3099.04
393.43	3158.74
393.493	3064.6
393.555	2977.35
393.618	2965.87
393.68	2880.92
393.742	2837.29
393.805	2802.85
393.867	2800.56
393.93	2727.09
393.992	2692.65
394.054	2699.53
394.117	2777.6
394.179	2580.14
394.241	2630.65
394.304	2575.55
394.366	2548
394.428	2596.21
394.49	2584.73
394.553	2609.99
394.615	2527.33
394.677	2467.64
394.739	2476.82
394.802	2490.6
394.864	2405.64
394.926	2368.91
394.988	2412.53
395.05	2375.8
395.112	2272.48
395.174	2336.76
395.237	2350.54
395.299	2412.53
395.361	2228.85
395.423	2182.93
395.485	2224.26
395.547	2199
395.609	2123.23
395.671	2127.83
395.733	2058.95
395.795	1987.77
395.857	2045.17
395.919	2029.1
395.981	2132.42
396.043	2116.35
396.105	2132.42
396.167	1980.88
396.229	1909.71
396.291	1854.6
396.352	1930.37
396.414	1872.97
396.476	1810.98
396.538	1877.56
396.6	1845.42
396.662	1877.56
396.724	1859.19
396.785	1744.39
396.847	1820.16
396.909	1675.51
396.971	1673.22
397.032	1654.85
397.094	1716.84
397.156	1670.92
397.218	1677.81
397.279	1675.51
397.341	1661.74
397.403	1565.3
397.464	1592.86
397.526	1553.82
397.588	1535.46
397.649	1501.02
397.711	1471.17
397.772	1448.21
397.834	1436.73
397.896	1533.16
397.957	1411.47
398.019	1487.24
398.08	1494.13
398.142	1466.58
398.203	1459.69
398.265	1393.1
398.326	1381.62
398.388	1383.92
398.449	1379.33
398.511	1326.52
398.572	1278.3
398.633	1333.41
398.695	1347.18
398.756	1271.42
398.818	1246.16
398.879	1326.52
398.94	1321.93
399.002	1310.45
399.063	1356.37
399.124	1287.49
399.186	1338
399.247	1234.68
399.308	1209.42
399.369	1296.67
399.431	1239.27
399.492	1181.87
399.553	1209.42
399.614	1181.87
399.676	1253.05
399.737	1184.17
399.798	1131.36
399.859	1145.13
399.92	1186.46
399.981	1135.95
400.042	1133.65
400.104	1239.27
400.165	1122.17
400.226	1115.29
400.287	1168.09
400.348	1090.03
400.409	1142.84
400.47	1060.18
400.531	1071.66
400.592	1060.18
400.653	1195.65
400.714	1094.62
400.775	1076.25
400.836	998.19
400.897	1085.44
400.958	991.3
401.019	1069.37
401.08	972.93
401.141	975.23
401.201	986.71
401.262	904.05
401.323	1048.7
401.384	968.34
401.445	949.97
401.506	1030.33
401.567	943.09
401.627	968.34
401.688	956.86
401.749	915.53
401.81	963.75
401.87	970.64
401.931	952.27
401.992	927.01
402.053	956.86
402.113	945.38
402.174	920.13
402.235	887.98
402.295	977.53
402.356	904.05
402.417	858.13
402.477	876.5
402.538	860.43
402.598	865.02
402.659	869.61
402.719	887.98
402.78	878.8
402.841	887.98
402.901	839.77
402.962	832.88
403.022	823.69
403.083	887.98
403.143	874.21
403.204	901.76
403.264	823.69
403.324	860.43
403.385	901.76
403.445	825.99
403.506	784.66
403.566	865.02
403.627	800.73
403.687	798.44
403.747	839.77
403.808	768.59
403.868	803.03
403.928	862.73
403.989	793.85
404.049	759.41
404.109	736.45
404.169	667.56
404.23	803.03
404.29	759.41
404.35	741.04
404.41	711.19
404.47	800.73
404.531	782.37
404.591	750.22
404.651	791.55
404.711	786.96
404.771	734.15
404.831	729.56
404.892	777.77
404.952	674.45
405.012	718.08
405.072	724.97
405.132	754.81
405.192	754.81
405.252	662.97
405.312	665.27
405.372	757.11
405.432	646.9
405.492	656.08
405.552	692.82
405.612	718.08
405.672	704.3
405.732	667.56
405.792	635.42
405.852	607.87
405.912	656.08
405.971	777.77
406.031	681.34
406.091	697.41
406.151	660.68
406.211	713.48
406.271	653.79
406.33	642.31
406.39	669.86
406.45	614.76
406.51	640.01
406.57	646.9
406.629	660.68
406.689	651.49
406.749	669.86
406.808	621.64
406.868	676.75
406.928	697.41
406.988	628.53
407.047	665.27
407.107	603.28
407.166	626.24
407.226	674.45
407.286	653.79
407.345	575.72
407.405	543.58
407.464	614.76
407.524	644.6
407.584	702
407.643	630.83
407.703	651.49
407.762	610.16
407.822	660.68
407.881	607.87
407.941	612.46
408	614.76
408.059	699.71
408.119	559.65
408.178	605.57
408.238	695.12
408.297	582.61
408.356	619.35
408.416	568.84
408.475	614.76
408.535	640.01
408.594	534.4
408.653	617.05
408.712	550.47
408.772	573.43
408.831	626.24
408.89	669.86
408.95	550.47
409.009	545.88
409.068	594.09
409.127	578.02
409.186	573.43
409.246	582.61
409.305	557.36
409.364	584.91
409.423	513.73
409.482	575.72
409.541	561.95
409.6	552.76
409.66	561.95
409.719	550.47
409.778	552.76
409.837	573.43
409.896	472.4
409.955	582.61
410.014	688.23
410.073	559.65
410.132	630.83
410.191	566.54
410.25	580.32
410.309	541.28
410.368	541.28
410.427	649.2
410.486	594.09
410.545	444.85
410.603	522.92
410.662	545.88
410.721	525.21
410.78	483.88
410.839	598.68
410.898	536.69
410.957	497.66
411.015	481.59
411.074	511.44
411.133	642.31
411.192	580.32
411.25	559.65
411.309	580.32
411.368	506.84
411.427	527.51
411.485	431.08
411.544	499.96
411.603	495.36
411.661	522.92
411.72	571.13
411.779	495.36
411.837	506.84
411.896	568.84
411.955	518.32
412.013	486.18
412.072	458.63
412.13	504.55
412.189	458.63
412.247	552.76
412.306	550.47
412.364	472.4
412.423	444.85
412.481	504.55
412.54	541.28
412.598	490.77
412.657	456.33
412.715	543.58
412.774	490.77
412.832	495.36
412.891	516.03
412.949	520.62
413.007	522.92
413.066	493.07
413.124	417.3
413.182	499.96
413.241	451.74
413.299	490.77
413.357	538.99
413.416	534.4
413.474	502.25
413.532	509.14
413.59	474.7
413.649	534.4
413.707	495.36
413.765	520.62
413.823	497.66
413.881	437.96
413.94	403.52
413.998	463.22
414.056	538.99
414.114	449.44
414.172	373.68
414.23	463.22
414.288	511.44
414.347	470.11
414.405	481.59
414.463	442.56
414.521	442.56
414.579	474.7
414.637	472.4
414.695	456.33
414.753	454.04
414.811	426.48
414.869	460.92
414.927	488.48
414.985	433.37
415.043	483.88
415.101	474.7
415.158	477
415.216	458.63
415.274	568.84
415.332	410.41
415.39	401.23
415.448	490.77
415.506	444.85
415.563	458.63
415.621	488.48
415.679	483.88
415.737	460.92
415.795	382.86
415.852	444.85
415.91	449.44
415.968	433.37
416.026	435.67
416.083	410.41
416.141	415
416.199	522.92
416.256	449.44
416.314	442.56
416.372	396.64
416.429	499.96
416.487	486.18
416.544	449.44
416.602	357.6
416.66	421.89
416.717	433.37
416.775	417.3
416.832	467.81
416.89	522.92
416.947	481.59
417.005	417.3
417.062	460.92
417.12	435.67
417.177	490.77
417.235	442.56
417.292	428.78
417.35	431.08
417.407	437.96
417.464	470.11
417.522	394.34
417.579	419.6
417.637	472.4
417.694	424.19
417.751	362.2
417.809	426.48
417.866	359.9
417.923	437.96
417.981	481.59
418.038	497.66
418.095	456.33
418.152	444.85
418.21	447.15
418.267	479.29
418.324	417.3
418.381	437.96
418.438	419.6
418.496	419.6
418.553	408.12
418.61	415
418.667	479.29
418.724	396.64
418.781	456.33
418.838	364.49
418.895	467.81
418.952	408.12
419.01	454.04
419.067	428.78
419.124	483.88
419.181	435.67
419.238	456.33
419.295	465.52
419.352	437.96
419.409	447.15
419.466	488.48
419.523	387.45
419.579	437.96
419.636	419.6
419.693	405.82
419.75	426.48
419.807	398.93
419.864	470.11
419.921	479.29
419.978	467.81
420.034	396.64
420.091	451.74
420.148	371.38
420.205	417.3
420.262	408.12
420.318	431.08
420.375	472.4
420.432	493.07
420.489	419.6
420.545	447.15
420.602	398.93
420.659	428.78
420.715	396.64
420.772	488.48
420.829	401.23
420.885	396.64
420.942	456.33
420.999	417.3
421.055	417.3
421.112	392.04
421.168	403.52
421.225	396.64
421.282	511.44
421.338	401.23
421.395	387.45
421.451	403.52
421.508	449.44
421.564	396.64
421.621	410.41
421.677	408.12
421.734	366.79
421.79	444.85
421.846	417.3
421.903	428.78
421.959	387.45
422.016	375.97
422.072	401.23
422.128	410.41
422.185	415
422.241	463.22
422.297	412.71
422.354	382.86
422.41	369.08
422.466	412.71
422.523	373.68
422.579	385.16
422.635	401.23
422.691	412.71
422.748	330.05
422.804	392.04
422.86	467.81
422.916	442.56
422.972	408.12
423.029	435.67
423.085	465.52
423.141	449.44
423.197	394.34
423.253	405.82
423.309	437.96
423.365	405.82
423.421	417.3
423.477	454.04
423.533	449.44
423.589	451.74
423.645	403.52
423.701	401.23
423.757	447.15
423.813	389.75
423.869	403.52
423.925	385.16
423.981	355.31
424.037	483.88
424.093	483.88
424.149	389.75
424.205	380.56
424.261	405.82
424.317	442.56
424.373	332.35
424.428	396.64
424.484	378.27
424.54	467.81
424.596	389.75
424.652	385.16
424.708	454.04
424.763	297.91
424.819	375.97
424.875	433.37
424.931	366.79
424.986	369.08
425.042	460.92
425.098	339.24
425.153	330.05
425.209	353.01
425.265	403.52
425.32	394.34
425.376	435.67
425.432	408.12
425.487	433.37
425.543	375.97
425.598	375.97
425.654	401.23
425.709	382.86
425.765	417.3
425.82	311.68
425.876	417.3
425.932	369.08
425.987	382.86
426.042	392.04
426.098	421.89
426.153	415
426.209	389.75
426.264	401.23
426.32	382.86
426.375	444.85
426.43	348.42
426.486	401.23
426.541	392.04
426.597	410.41
426.652	350.72
426.707	426.48
426.763	378.27
426.818	405.82
426.873	387.45
426.928	394.34
426.984	396.64
427.039	403.52
427.094	353.01
427.149	403.52
427.205	357.6
427.26	316.28
427.315	380.56
427.37	415
427.425	362.2
427.48	412.71
427.536	415
427.591	373.68
427.646	302.5
427.701	401.23
427.756	426.48
427.811	385.16
427.866	415
427.921	362.2
427.976	350.72
428.031	419.6
428.086	458.63
428.141	398.93
428.196	428.78
428.251	325.46
428.306	350.72
428.361	343.83
428.416	382.86
428.471	456.33
428.526	378.27
428.581	408.12
428.636	318.57
428.691	350.72
428.745	346.12
428.8	353.01
428.855	382.86
428.91	424.19
428.965	380.56
429.02	401.23
429.074	442.56
429.129	419.6
429.184	353.01
429.239	405.82
429.293	359.9
429.348	366.79
429.403	355.31
429.457	350.72
429.512	403.52
429.567	389.75
429.621	398.93
429.676	396.64
429.731	330.05
429.785	398.93
429.84	392.04
429.895	437.96
429.949	435.67
430.004	435.67
430.058	387.45
430.113	359.9
430.167	364.49
430.222	355.31
430.276	419.6
430.331	343.83
430.385	380.56
430.44	382.86
430.494	387.45
430.549	359.9
430.603	369.08
430.657	355.31
430.712	327.76
430.766	408.12
430.821	412.71
430.875	417.3
430.929	359.9
430.984	327.76
431.038	396.64
431.092	403.52
431.147	336.94
431.201	353.01
431.255	378.27
431.309	394.34
431.364	316.28
431.418	442.56
431.472	359.9
431.526	371.38
431.581	417.3
431.635	410.41
431.689	431.08
431.743	348.42
431.797	387.45
431.851	424.19
431.906	350.72
431.96	385.16
432.014	440.26
432.068	389.75
432.122	348.42
432.176	412.71
432.23	431.08
432.284	417.3
432.338	346.12
432.392	394.34
432.446	380.56
432.5	357.6
432.554	346.12
432.608	410.41
432.662	408.12
432.716	336.94
432.77	385.16
432.824	387.45
432.878	350.72
432.931	313.98
432.985	341.53
433.039	371.38
433.093	316.28
433.147	380.56
433.201	408.12
433.254	412.71
433.308	382.86
433.362	373.68
433.416	369.08
433.47	341.53
433.523	449.44
433.577	392.04
433.631	401.23
433.684	357.6
433.738	339.24
433.792	325.46
433.846	378.27
433.899	382.86
433.953	320.87
434.006	366.79
434.06	359.9
434.114	417.3
434.167	417.3
434.221	417.3
