Data from FLMS155811_12-03-21-384.txt Node
Date: Mon Mar 25 12:03:21 MDT 2024
User: andh57
Spectrometer: FLMS15581
Trigger mode: 0
Integration Time (sec): 5.154490E-1
Scans to average: 4
Electric dark correction enabled: true
Nonlinearity correction enabled: false
Boxcar width: 0
XAxis mode: Wavelengths
Number of Pixels in Spectrum: 2048
>>>>>Begin Spectral Data<<<<<
298.026	-65.97
298.106	-65.97
298.185	-65.97
298.265	-87.79
298.344	-73.44
298.424	-66.55
298.503	-72.86
298.583	-57.94
298.662	-44.16
298.741	-58.51
298.821	-48.75
298.9	-18.33
298.98	-21.2
299.059	23.57
299.138	4.05
299.217	9.79
299.297	39.64
299.376	28.16
299.455	63.18
299.535	105.08
299.614	114.84
299.693	121.72
299.772	137.8
299.852	175.11
299.931	157.89
300.01	180.85
300.089	186.59
300.168	245.13
300.247	215.29
300.327	239.97
300.406	266.37
300.485	279
300.564	279.58
300.643	293.93
300.722	376.58
300.801	378.3
300.88	357.07
300.959	331.24
301.038	381.75
301.117	355.34
301.196	355.92
301.275	400.12
301.354	401.84
301.433	397.82
301.512	346.73
301.591	390.36
301.67	368.55
301.749	430.54
301.828	363.38
301.907	363.38
301.985	411.6
302.064	355.92
302.143	350.18
302.222	414.47
302.301	345.59
302.38	363.38
302.458	398.97
302.537	347.31
302.616	339.27
302.695	389.21
302.773	346.16
302.852	375.43
302.931	355.92
303.01	315.16
303.088	376.58
303.167	334.11
303.246	323.77
303.324	349.6
303.403	323.77
303.481	335.83
303.56	377.73
303.639	307.7
303.717	376.58
303.796	350.18
303.874	290.48
303.953	397.25
304.032	342.72
304.11	354.77
304.189	367.4
304.267	342.14
304.346	348.46
304.424	397.25
304.502	307.13
304.581	312.29
304.659	324.35
304.738	346.16
304.816	342.72
304.895	335.83
304.973	301.96
305.051	362.81
305.13	327.79
305.208	344.44
305.286	328.37
305.365	349.6
305.443	352.47
305.521	324.35
305.6	322.05
305.678	356.49
305.756	377.73
305.834	363.38
305.913	346.16
305.991	346.73
306.069	347.88
306.147	361.08
306.225	347.88
306.304	345.59
306.382	382.32
306.46	339.27
306.538	338.7
306.616	336.98
306.694	346.73
306.772	344.44
306.85	349.6
306.929	325.5
307.007	324.35
307.085	371.42
307.163	359.94
307.241	360.51
307.319	362.23
307.397	332.96
307.475	366.25
307.553	316.31
307.631	339.27
307.709	343.86
307.786	349.03
307.864	327.79
307.942	365.68
308.02	363.38
308.098	371.99
308.176	374.29
308.254	371.42
308.332	344.44
308.409	330.66
308.487	380.6
308.565	355.34
308.643	360.51
308.721	349.03
308.798	339.27
308.876	333.53
308.954	376.58
309.032	351.9
309.109	392.65
309.187	355.34
309.265	351.9
309.342	334.11
309.42	330.66
309.498	357.07
309.575	362.23
309.653	362.23
309.731	381.17
309.808	363.95
309.886	376.58
309.963	334.68
310.041	370.27
310.119	385.19
310.196	335.83
310.274	340.99
310.351	351.9
310.429	339.85
310.506	358.79
310.584	371.99
310.661	377.16
310.738	354.2
310.816	365.1
310.893	406.43
310.971	363.38
311.048	359.94
311.126	336.4
311.203	346.73
311.28	326.07
311.358	376.58
311.435	356.49
311.512	351.33
311.59	350.18
311.667	328.37
311.744	330.66
311.821	349.03
311.899	324.35
311.976	382.32
312.053	357.64
312.13	388.06
312.208	334.11
312.285	374.29
312.362	390.36
312.439	359.94
312.516	327.79
312.593	390.36
312.671	348.46
312.748	375.43
312.825	359.94
312.902	349.03
312.979	385.77
313.056	333.53
313.133	377.73
313.21	373.71
313.287	364.53
313.364	344.44
313.441	379.45
313.518	326.64
313.595	355.92
313.672	371.42
313.749	385.77
313.826	327.22
313.903	359.94
313.98	365.1
314.057	367.97
314.134	343.29
314.211	408.73
314.287	366.82
314.364	387.49
314.441	398.39
314.518	343.29
314.595	380.03
314.672	350.75
314.748	371.42
314.825	380.6
314.902	385.77
314.979	339.27
315.055	374.86
315.132	355.34
315.209	366.82
315.286	340.42
315.362	379.45
315.439	380.03
315.516	387.49
315.592	396.67
315.669	379.45
315.746	346.73
315.822	407.58
315.899	386.34
315.975	381.75
316.052	377.73
316.128	317.46
316.205	369.69
316.282	383.47
316.358	390.36
316.435	478.75
316.511	368.55
316.588	331.81
316.664	369.12
316.741	384.04
316.817	394.95
316.893	367.97
316.97	335.83
317.046	395.52
317.123	346.73
317.199	401.26
317.275	350.75
317.352	357.07
317.428	355.92
317.504	346.73
317.581	363.38
317.657	381.17
317.733	380.6
317.81	376.01
317.886	376.58
317.962	393.23
318.038	392.65
318.115	405.86
318.191	340.42
318.267	385.19
318.343	382.32
318.419	378.88
318.496	398.97
318.572	359.94
318.648	398.97
318.724	355.92
318.8	394.95
318.876	372.56
318.952	371.42
319.028	372.56
319.105	376.58
319.181	368.55
319.257	357.07
319.333	364.53
319.409	368.55
319.485	380.6
319.561	416.19
319.637	396.67
319.713	338.7
319.789	363.95
319.865	377.16
319.94	360.51
320.016	381.17
320.092	375.43
320.168	371.42
320.244	363.95
320.32	363.95
320.396	345.59
320.472	354.77
320.547	404.71
320.623	352.47
320.699	384.62
320.775	370.84
320.851	375.43
320.926	365.1
321.002	360.51
321.078	384.04
321.154	374.29
321.229	366.82
321.305	369.69
321.381	355.92
321.456	370.84
321.532	366.82
321.608	341.57
321.683	338.12
321.759	382.32
321.835	366.25
321.91	356.49
321.986	366.82
322.061	400.69
322.137	387.49
322.212	397.25
322.288	372.56
322.364	374.86
322.439	389.21
322.515	407
322.59	379.45
322.666	401.26
322.741	444.31
322.816	397.82
322.892	392.65
322.967	417.91
323.043	379.45
323.118	386.91
323.193	422.5
323.269	367.4
323.344	351.33
323.42	349.03
323.495	404.13
323.57	363.38
323.646	369.69
323.721	394.38
323.796	378.3
323.871	354.77
323.947	350.18
324.022	351.9
324.097	373.71
324.172	388.64
324.248	369.12
324.323	368.55
324.398	427.09
324.473	348.46
324.548	332.96
324.623	381.75
324.699	371.42
324.774	377.16
324.849	359.94
324.924	331.81
324.999	364.53
325.074	355.34
325.149	385.19
325.224	415.61
325.299	371.42
325.374	380.03
325.449	381.75
325.524	358.79
325.599	368.55
325.674	372.56
325.749	391.51
325.824	394.95
325.899	376.01
325.974	339.85
326.049	361.66
326.124	389.78
326.199	350.75
326.273	419.06
326.348	398.97
326.423	370.84
326.498	385.19
326.573	367.4
326.648	396.67
326.722	384.04
326.797	407.58
326.872	389.21
326.947	349.6
327.021	394.95
327.096	355.92
327.171	369.12
327.245	385.19
327.32	393.23
327.395	346.73
327.47	366.82
327.544	348.46
327.619	378.3
327.693	464.4
327.768	395.52
327.843	393.8
327.917	400.12
327.992	355.34
328.066	353.62
328.141	332.96
328.215	363.95
328.29	398.39
328.364	366.82
328.439	385.19
328.513	398.39
328.588	407
328.662	404.71
328.737	373.71
328.811	394.38
328.886	397.25
328.96	367.4
329.035	353.62
329.109	354.2
329.183	392.08
329.258	377.73
329.332	403.56
329.406	367.97
329.481	374.29
329.555	395.52
329.629	381.75
329.704	351.9
329.778	385.77
329.852	347.88
329.926	400.12
330.001	397.25
330.075	408.73
330.149	386.34
330.223	353.05
330.297	350.75
330.372	394.95
330.446	387.49
330.52	362.81
330.594	416.76
330.668	360.51
330.742	377.73
330.816	383.47
330.89	369.12
330.964	361.08
331.038	367.97
331.113	386.34
331.187	392.08
331.261	354.2
331.335	404.13
331.409	370.84
331.483	363.95
331.557	340.42
331.63	351.9
331.704	364.53
331.778	425.37
331.852	377.73
331.926	388.06
332	398.39
332.074	404.71
332.148	369.69
332.222	384.04
332.295	375.43
332.369	378.3
332.443	404.71
332.517	369.69
332.591	398.39
332.665	389.21
332.738	363.38
332.812	363.38
332.886	370.27
332.959	367.4
333.033	404.13
333.107	389.21
333.181	396.1
333.254	370.84
333.328	375.43
333.402	371.42
333.475	363.95
333.549	384.62
333.622	393.8
333.696	373.14
333.77	380.6
333.843	386.91
333.917	359.36
333.99	444.31
334.064	397.82
334.137	358.79
334.211	319.18
334.284	360.51
334.358	396.1
334.431	367.4
334.505	408.73
334.578	397.25
334.652	388.06
334.725	396.1
334.799	366.82
334.872	354.2
334.945	394.38
335.019	367.4
335.092	369.12
335.165	382.9
335.239	338.7
335.312	388.64
335.385	386.91
335.459	417.34
335.532	415.04
335.605	382.32
335.678	452.35
335.752	383.47
335.825	363.38
335.898	366.25
335.971	467.27
336.045	390.93
336.118	365.68
336.191	345.01
336.264	349.6
336.337	366.82
336.41	370.84
336.483	397.25
336.557	352.47
336.63	406.43
336.703	457.52
336.776	369.12
336.849	431.11
336.922	355.34
336.995	378.88
337.068	361.66
337.141	387.49
337.214	382.9
337.287	366.25
337.36	365.1
337.433	399.54
337.506	367.97
337.579	359.94
337.652	393.23
337.725	390.36
337.797	391.51
337.87	366.82
337.943	390.93
338.016	354.77
338.089	374.29
338.162	363.95
338.235	390.93
338.307	377.73
338.38	389.21
338.453	378.88
338.526	380.6
338.598	383.47
338.671	368.55
338.744	374.86
338.817	363.95
338.889	388.64
338.962	376.58
339.035	346.73
339.107	365.1
339.18	366.25
339.253	406.43
339.325	359.36
339.398	362.81
339.47	351.9
339.543	402.99
339.616	388.64
339.688	392.65
339.761	401.84
339.833	404.13
339.906	343.86
339.978	373.71
340.051	369.69
340.123	378.88
340.196	364.53
340.268	395.52
340.341	370.27
340.413	346.16
340.485	373.14
340.558	385.77
340.63	417.34
340.703	371.99
340.775	403.56
340.847	347.31
340.92	349.6
340.992	351.9
341.064	396.1
341.137	367.97
341.209	385.77
341.281	392.65
341.354	358.79
341.426	385.77
341.498	370.84
341.57	363.95
341.643	401.26
341.715	362.81
341.787	372.56
341.859	370.84
341.931	365.1
342.003	393.23
342.076	369.69
342.148	349.03
342.22	366.82
342.292	387.49
342.364	369.69
342.436	367.97
342.508	382.32
342.58	343.86
342.652	371.99
342.724	431.11
342.796	352.47
342.868	386.34
342.94	379.45
343.012	362.23
343.084	365.68
343.156	373.14
343.228	369.69
343.3	376.01
343.372	368.55
343.444	347.88
343.516	372.56
343.588	380.6
343.66	376.01
343.731	357.64
343.803	379.45
343.875	352.47
343.947	353.05
344.019	373.71
344.09	383.47
344.162	375.43
344.234	422.5
344.306	346.73
344.377	386.91
344.449	377.73
344.521	378.3
344.593	354.77
344.664	323.2
344.736	376.58
344.808	365.1
344.879	382.9
344.951	353.05
345.023	364.53
345.094	364.53
345.166	371.99
345.237	389.21
345.309	350.75
345.38	369.12
345.452	355.92
345.524	363.38
345.595	396.67
345.667	385.19
345.738	375.43
345.81	378.88
345.881	372.56
345.953	404.71
346.024	353.05
346.095	383.47
346.167	384.04
346.238	377.73
346.31	365.1
346.381	393.23
346.452	404.71
346.524	369.69
346.595	354.77
346.666	367.97
346.738	366.25
346.809	345.59
346.88	379.45
346.952	393.8
347.023	381.75
347.094	373.71
347.165	429.96
347.237	415.61
347.308	375.43
347.379	369.69
347.45	388.64
347.521	386.91
347.593	382.32
347.664	401.84
347.735	371.42
347.806	380.03
347.877	332.38
347.948	364.53
348.019	368.55
348.09	382.9
348.161	397.25
348.233	358.79
348.304	385.19
348.375	413.89
348.446	386.34
348.517	379.45
348.588	334.11
348.659	373.71
348.73	367.4
348.801	390.36
348.871	369.69
348.942	370.84
349.013	389.21
349.084	363.38
349.155	381.75
349.226	391.51
349.297	367.4
349.368	377.16
349.439	399.54
349.509	386.34
349.58	388.64
349.651	398.97
349.722	396.1
349.793	392.65
349.863	371.42
349.934	402.99
350.005	394.38
350.076	374.86
350.146	375.43
350.217	382.9
350.288	393.8
350.358	416.19
350.429	363.95
350.5	377.16
350.57	400.12
350.641	361.66
350.711	360.51
350.782	372.56
350.853	393.8
350.923	351.9
350.994	384.04
351.064	353.62
351.135	377.16
351.205	374.29
351.276	377.73
351.346	375.43
351.417	404.71
351.487	392.08
351.558	383.47
351.628	393.23
351.699	411.6
351.769	426.52
351.84	407.58
351.91	344.44
351.98	363.95
352.051	386.91
352.121	432.26
352.191	380.6
352.262	382.32
352.332	356.49
352.402	402.41
352.473	385.77
352.543	434.56
352.613	386.34
352.683	354.2
352.754	357.07
352.824	362.23
352.894	393.8
352.964	358.21
353.035	382.32
353.105	398.97
353.175	404.71
353.245	387.49
353.315	400.69
353.385	368.55
353.455	384.62
353.526	352.47
353.596	351.9
353.666	413.32
353.736	369.69
353.806	357.64
353.876	386.34
353.946	364.53
354.016	385.19
354.086	397.82
354.156	400.12
354.226	365.1
354.296	381.17
354.366	390.93
354.436	393.8
354.506	393.23
354.576	360.51
354.645	362.81
354.715	406.43
354.785	412.17
354.855	355.92
354.925	366.25
354.995	369.69
355.065	393.23
355.134	386.91
355.204	398.97
355.274	405.86
355.344	369.12
355.414	423.65
355.483	385.77
355.553	372.56
355.623	385.19
355.693	410.45
355.762	394.95
355.832	413.32
355.902	372.56
355.971	387.49
356.041	407.58
356.111	409.87
356.18	359.94
356.25	342.14
356.319	359.94
356.389	372.56
356.459	379.45
356.528	384.04
356.598	371.99
356.667	367.97
356.737	406.43
356.806	355.34
356.876	407.58
356.945	414.47
357.015	357.07
357.084	341.57
357.154	374.29
357.223	366.25
357.292	393.8
357.362	391.51
357.431	380.6
357.501	369.69
357.57	388.64
357.639	347.88
357.709	384.04
357.778	365.68
357.847	365.1
357.917	390.93
357.986	400.69
358.055	372.56
358.124	384.62
358.194	420.78
358.263	1366.16
358.332	398.39
358.401	435.13
358.471	403.56
358.54	369.69
358.609	378.88
358.678	367.97
358.747	400.12
358.816	444.31
358.886	367.97
358.955	377.73
359.024	389.78
359.093	353.62
359.162	422.5
359.231	394.95
359.3	379.45
359.369	385.19
359.438	379.45
359.507	413.32
359.576	390.36
359.645	380.03
359.714	416.76
359.783	397.25
359.852	387.49
359.921	390.36
359.99	370.84
360.059	377.16
360.128	396.67
360.197	369.12
360.266	374.29
360.334	421.93
360.403	384.04
360.472	360.51
360.541	363.95
360.61	391.51
360.679	388.64
360.747	400.69
360.816	385.77
360.885	382.32
360.954	374.29
361.022	381.17
361.091	407.58
361.16	377.73
361.228	381.75
361.297	389.78
361.366	420.21
361.434	395.52
361.503	442.59
361.572	373.71
361.64	373.14
361.709	382.32
361.778	375.43
361.846	393.23
361.915	396.67
361.983	405.86
362.052	389.21
362.12	366.25
362.189	412.17
362.257	339.27
362.326	397.82
362.394	397.25
362.463	411.6
362.531	382.9
362.6	392.08
362.668	371.42
362.737	382.32
362.805	405.28
362.873	420.78
362.942	388.64
363.01	427.67
363.079	383.47
363.147	337.55
363.215	376.58
363.284	350.18
363.352	394.95
363.42	369.69
363.488	357.07
363.557	362.81
363.625	377.73
363.693	362.81
363.761	409.87
363.83	399.54
363.898	357.64
363.966	390.93
364.034	373.71
364.102	374.29
364.171	367.97
364.239	409.87
364.307	412.17
364.375	379.45
364.443	381.17
364.511	385.77
364.579	427.09
364.647	374.29
364.715	393.8
364.783	404.71
364.851	365.68
364.919	442.59
364.987	454.07
365.055	377.16
365.123	372.56
365.191	386.34
365.259	442.59
365.327	366.82
365.395	368.55
365.463	381.17
365.531	400.69
365.599	439.72
365.667	397.82
365.735	397.25
365.802	400.12
365.87	369.12
365.938	393.23
366.006	386.34
366.074	347.88
366.142	376.01
366.209	388.64
366.277	409.87
366.345	351.33
366.413	390.36
366.48	433.41
366.548	374.86
366.616	397.82
366.683	409.3
366.751	415.04
366.819	374.86
366.886	388.06
366.954	442.02
367.022	371.99
367.089	411.6
367.157	392.65
367.224	716.96
367.292	355.92
367.36	415.04
367.427	397.25
367.495	409.3
367.562	409.87
367.63	377.16
367.697	367.97
367.765	393.23
367.832	397.25
367.9	425.95
367.967	412.17
368.034	417.91
368.102	373.14
368.169	404.71
368.237	346.16
368.304	392.08
368.371	362.81
368.439	425.95
368.506	385.77
368.573	374.29
368.641	424.22
368.708	373.14
368.775	397.25
368.843	383.47
368.91	383.47
368.977	394.95
369.044	368.55
369.112	382.32
369.179	397.82
369.246	429.39
369.313	397.25
369.38	385.77
369.448	394.95
369.515	351.9
369.582	390.93
369.649	445.46
369.716	400.69
369.783	414.47
369.85	402.99
369.917	397.25
369.984	393.8
370.052	410.45
370.119	394.95
370.186	454.07
370.253	377.16
370.32	425.95
370.387	396.67
370.454	404.71
370.521	357.64
370.587	403.56
370.654	427.09
370.721	404.71
370.788	369.12
370.855	369.69
370.922	374.86
370.989	380.03
371.056	411.02
371.123	446.04
371.189	380.03
371.256	404.13
371.323	401.26
371.39	410.45
371.457	376.01
371.523	445.46
371.59	393.23
371.657	371.99
371.724	380.6
371.79	392.08
371.857	386.34
371.924	423.08
371.991	420.21
372.057	416.19
372.124	431.69
372.191	438
372.257	385.19
372.324	408.15
372.39	408.15
372.457	380.03
372.524	381.75
372.59	418.48
372.657	390.93
372.723	387.49
372.79	385.19
372.856	461.53
372.923	432.83
372.989	409.87
373.056	417.34
373.122	402.99
373.189	384.62
373.255	401.26
373.322	385.77
373.388	419.63
373.454	396.1
373.521	450.63
373.587	420.21
373.654	404.13
373.72	415.04
373.786	415.61
373.853	433.41
373.919	435.13
373.985	386.34
374.052	395.52
374.118	368.55
374.184	420.78
374.25	435.7
374.317	412.17
374.383	383.47
374.449	390.36
374.515	405.28
374.581	442.59
374.648	418.48
374.714	402.41
374.78	378.3
374.846	422.5
374.912	353.62
374.978	429.39
375.044	431.69
375.11	372.56
375.177	369.12
375.243	447.18
375.309	386.91
375.375	393.8
375.441	405.28
375.507	434.56
375.573	374.86
375.639	402.41
375.705	384.04
375.771	411.6
375.837	391.51
375.903	404.13
375.968	395.52
376.034	408.73
376.1	417.91
376.166	451.2
376.232	434.56
376.298	397.25
376.364	397.25
376.43	400.69
376.495	393.23
376.561	393.8
376.627	411.02
376.693	425.95
376.759	448.91
376.824	428.24
376.89	422.5
376.956	416.76
377.022	456.94
377.087	397.25
377.153	420.78
377.219	425.37
377.284	429.39
377.35	444.31
377.416	396.67
377.481	431.11
377.547	425.37
377.613	461.53
377.678	397.25
377.744	434.56
377.809	433.41
377.875	452.35
377.94	412.17
378.006	402.41
378.071	402.41
378.137	400.69
378.202	410.45
378.268	408.15
378.333	439.15
378.399	410.45
378.464	432.26
378.53	426.52
378.595	435.13
378.661	447.76
378.726	381.75
378.791	437.43
378.857	419.63
378.922	400.69
378.987	411.02
379.053	422.5
379.118	448.91
379.183	441.44
379.249	400.69
379.314	385.19
379.379	453.5
379.444	401.26
379.51	407.58
379.575	428.82
379.64	403.56
379.705	403.56
379.771	429.39
379.836	366.82
379.901	421.93
379.966	415.04
380.031	412.17
380.096	423.65
380.161	396.67
380.227	431.11
380.292	414.47
380.357	420.21
380.422	413.89
380.487	408.73
380.552	401.26
380.617	439.72
380.682	413.89
380.747	417.91
380.812	442.02
380.877	425.95
380.942	405.28
381.007	444.31
381.072	452.92
381.137	432.83
381.202	448.91
381.266	431.11
381.331	427.67
381.396	451.2
381.461	431.69
381.526	448.91
381.591	482.77
381.656	415.61
381.72	421.93
381.785	433.98
381.85	465.55
381.915	417.34
381.979	424.8
382.044	443.17
382.109	425.95
382.174	431.69
382.238	463.26
382.303	466.13
382.368	488.51
382.432	464.4
382.497	429.39
382.562	404.71
382.626	434.56
382.691	459.81
382.756	408.73
382.82	432.26
382.885	436.28
382.949	423.65
383.014	406.43
383.078	439.15
383.143	384.62
383.208	421.35
383.272	455.79
383.337	409.3
383.401	427.67
383.465	430.54
383.53	432.83
383.594	404.71
383.659	430.54
383.723	450.63
383.788	400.69
383.852	433.41
383.916	451.78
383.981	436.85
384.045	480.48
384.109	456.94
384.174	416.76
384.238	456.37
384.302	459.24
384.367	413.89
384.431	438.57
384.495	518.93
384.56	438
384.624	436.85
384.688	428.24
384.752	442.02
384.816	448.91
384.881	432.26
384.945	428.24
385.009	464.4
385.073	443.74
385.137	440.87
385.201	442.02
385.265	439.72
385.33	435.7
385.394	448.91
385.458	451.78
385.522	482.2
385.586	468.42
385.65	516.06
385.714	456.37
385.778	431.69
385.842	439.72
385.906	480.48
385.97	482.77
386.034	508.6
386.098	459.81
386.162	486.79
386.226	461.53
386.29	494.83
386.354	463.26
386.417	474.16
386.481	488.51
386.545	535.58
386.609	464.98
386.673	474.16
386.737	481.05
386.8	482.77
386.864	517.79
386.928	499.42
386.992	534.43
387.056	496.55
387.119	514.34
387.183	518.36
387.247	535.01
387.31	532.14
387.374	547.63
387.438	533.28
387.502	525.25
387.565	593.55
387.629	606.76
387.692	588.96
387.756	562.56
387.82	583.8
387.883	606.18
387.947	568.87
388.01	658.42
388.074	661.29
388.138	642.92
388.201	696.87
388.265	690.56
388.328	667.6
388.392	714.67
388.455	709.5
388.519	719.26
388.582	753.7
388.645	774.94
388.709	833.49
388.772	757.72
388.836	791.01
388.899	786.99
388.962	838.65
389.026	873.09
389.089	898.92
389.153	933.94
389.216	912.13
389.279	935.09
389.343	971.25
389.406	1024.63
389.469	1034.96
389.532	1080.31
389.596	1074.57
389.659	1098.68
389.722	1113.6
389.785	1183.63
389.848	1231.84
389.912	1223.23
389.975	1249.64
390.038	1251.94
390.101	1374.2
390.164	1383.38
390.227	1464.32
390.291	1503.92
390.354	1554.43
390.417	1587.73
390.48	1568.21
390.543	1668.66
390.606	1737.54
390.669	1790.92
390.732	1800.11
390.795	1916.63
390.858	1921.22
390.921	1996.99
390.984	2030.86
391.047	2067.59
391.11	2119.83
391.173	2253
391.236	2257.59
391.299	2398.22
391.362	2445.29
391.424	2510.72
391.487	2555.49
391.55	2631.26
391.613	2728.27
391.676	2778.78
391.739	2907.36
391.802	3000.92
391.864	3089.89
391.927	3159.34
391.99	3232.82
392.053	3322.94
392.115	3393.54
392.178	3427.4
392.241	3603.62
392.304	3713.83
392.366	3767.79
392.429	3853.89
392.492	3972.71
392.554	4081.19
392.617	4216.66
392.68	4243.06
392.742	4401.49
392.805	4504.81
392.867	4641.99
392.93	4702.84
392.992	4854.95
393.055	4968.6
393.118	5086.84
393.18	5200.5
393.243	5318.17
393.305	5435.84
393.368	5631.57
393.43	5714.23
393.493	5845.1
393.555	5900.78
393.618	5988.03
393.68	6066.67
393.742	6276.18
393.805	6527.02
393.867	6597.62
393.93	6620.01
393.992	6796.8
394.054	6968.42
394.117	7092.98
394.179	7198.6
394.241	7373.67
394.304	7441.4
394.366	7657.8
394.428	7708.89
394.49	7979.82
394.553	7980.39
394.615	8285.19
394.677	8449.92
394.739	8621.55
394.802	8880.43
394.864	8856.89
394.926	9001.54
394.988	9273.62
395.05	9438.36
395.112	9560.05
395.174	9762.67
395.237	9840.73
395.299	10133.47
395.361	10253.44
395.423	10455.49
395.485	10579.47
395.547	10726.42
395.609	11082.3
395.671	11123.05
395.733	11308.46
395.795	11489.84
395.857	11779.14
395.919	11885.9
395.981	12205.05
396.043	12408.82
396.105	12525.92
396.167	12639.57
396.229	13133.21
396.291	13469
396.352	13486.8
396.414	13695.73
396.476	14009.14
396.538	14212.91
396.6	14536.07
396.662	14623.32
396.724	15041.19
396.785	15065.3
396.847	15331.64
396.909	15663.99
396.971	15808.64
397.032	15973.37
397.094	16123.19
397.156	16459.55
397.218	16625.44
397.279	16849.88
397.341	17352.7
397.403	17558.77
397.464	17496.78
397.526	17840.03
397.588	18173.53
397.649	18225.76
397.711	18604.03
397.772	19027.64
397.834	19014.44
397.896	19331.29
397.957	19613.12
398.019	19904.72
398.08	20230.18
398.142	20365.07
398.203	20590.08
398.265	21063.63
398.326	21158.91
398.388	21361.53
398.449	21731.19
398.511	21887.32
398.572	22106.59
398.633	22432.62
398.695	22816.06
398.756	22832.13
398.818	23208.1
398.879	23375.71
398.94	23583.5
399.002	24086.9
399.063	24341.18
399.124	24618.42
399.186	24982.34
399.247	24965.7
399.308	25411.7
399.369	25620.06
399.431	25735.43
399.492	26083.28
399.553	26494.26
399.614	26660.72
399.676	27184.79
399.737	27504.51
399.798	27670.39
399.859	27995.28
399.92	28117.54
399.981	28652.51
400.042	28685.8
400.104	29094.49
400.165	29535.9
400.226	29801.09
400.287	29743.69
400.348	30202.89
400.409	30691.37
400.47	31003.05
400.531	31278
400.592	31490.38
400.653	31854.3
400.714	31698.74
400.775	32260.12
400.836	32552.28
400.897	32595.34
400.958	33083.81
401.019	33439.12
401.08	33205.5
401.141	33449.45
401.201	34252.48
401.262	34128.5
401.323	34254.2
401.384	34922.34
401.445	34883.88
401.506	35474.53
401.567	35733.98
401.627	36097.9
401.688	36038.78
401.749	36713.23
401.81	36922.74
401.87	37315.93
401.931	37396.87
401.992	37784.32
402.053	37434.18
402.113	38056.39
402.174	38481.73
402.235	38644.75
402.295	39107.97
402.356	38892.14
402.417	39026.46
402.477	39578.65
402.538	39623.42
402.598	39892.63
402.659	40419.56
402.719	40370.77
402.78	41194.46
402.841	41301.23
402.901	41526.24
402.962	41744.93
403.022	41888.43
403.083	42542.22
403.143	42510.65
403.204	43229.3
403.264	42871.13
403.324	43416.43
403.385	43425.04
403.445	44363.53
403.506	44189.04
403.566	44230.36
403.627	44173.54
403.687	44213.14
403.747	44387.64
403.808	44973.7
403.868	44831.34
403.928	45652.74
403.989	45604.53
404.049	45757.78
404.109	46315.71
404.169	46149.25
404.23	46237.08
404.29	46203.78
404.35	46754.83
404.41	46565.98
404.47	46955.15
404.531	47141.13
404.591	47492.99
404.651	48141.04
404.711	48224.27
404.771	48013.61
404.831	47751.87
404.892	48815.49
404.952	48945.22
405.012	48622.06
405.072	48397.05
405.132	48817.22
405.192	48577.86
405.252	49019.27
405.312	48759.24
405.372	49929.63
405.432	49279.29
405.492	49619.1
405.552	49629.43
405.612	49373.42
405.672	49716.68
405.732	50043.86
405.792	49832.63
405.852	49875.1
405.912	49831.48
405.971	50046.73
406.031	50217.21
406.091	49941.69
406.151	50032.95
406.211	50228.11
406.271	50117.33
406.33	50333.73
406.39	50156.36
406.45	49721.27
406.51	50121.92
406.57	49828.61
406.629	50042.71
406.689	50337.75
406.749	49922.17
406.808	50091.5
406.868	50343.49
406.928	50208.6
406.988	49899.78
407.047	49962.93
407.107	49976.7
407.166	49974.41
407.226	49768.91
407.286	49458.38
407.345	49469.28
407.405	49526.68
407.464	49423.36
407.524	49043.95
407.584	49143.25
407.643	49143.25
407.703	48593.93
407.762	48384.42
407.822	48108.32
407.881	48367.77
407.941	48258.14
408	48291.43
408.059	47792.62
408.119	47940.71
408.178	47648.55
408.238	47683.56
408.297	47067.66
408.356	47080.86
408.416	47237.56
408.475	47050.44
408.535	46595.83
408.594	46421.9
408.653	46718.66
408.712	46560.24
408.772	45630.93
408.831	45504.65
408.89	45388.13
408.95	44919.74
409.009	44839.38
409.068	44925.48
409.127	44940.98
409.186	44251.6
409.246	43740.74
409.305	43939.92
409.364	43652.34
409.423	43752.79
409.482	43297.61
409.541	42600.77
409.6	42958.37
409.66	42636.93
409.719	42309.75
409.778	42200.12
409.837	41743.79
409.896	41187
409.955	41107.22
410.014	40612.43
410.073	40879.91
410.132	40360.44
410.191	39522.97
410.25	39725.59
410.309	39151.59
410.368	38795.13
410.427	37988.66
410.486	37666.65
410.545	36926.18
410.603	35780.47
410.662	35242.06
410.721	34181.88
410.78	33193.45
410.839	31829.04
410.898	30889.97
410.957	29504.91
411.015	28245.55
411.074	26823.17
411.133	25523.05
411.192	23935.36
411.25	22384.41
411.309	20938.49
411.368	19574.67
411.427	18481.76
411.485	17108.18
411.544	15862.02
411.603	14591.75
411.661	13405.86
411.72	12433.5
411.779	11474.34
411.837	10303.95
411.896	9424.01
411.955	8753
412.013	7874.2
412.072	7265.76
412.13	6574.09
412.189	5916.85
412.247	5411.16
412.306	4977.78
412.364	4532.36
412.423	4251.1
412.481	3902.1
412.54	3561.15
412.598	3292.51
412.657	3054.88
412.715	2796.58
412.774	2651.93
412.832	2398.79
412.891	2330.49
412.949	2156.56
413.007	2059.56
413.066	1899.98
413.124	1778.87
413.182	1662.35
413.241	1639.39
413.299	1519.99
413.357	1514.83
413.416	1385.1
413.474	1362.14
413.532	1347.79
413.59	1197.4
413.649	1219.79
413.707	1145.74
413.765	1177.31
413.823	1049.89
413.881	1046.44
413.94	1024.63
413.998	977.56
414.056	947.71
414.114	916.14
414.172	920.16
414.23	865.63
414.288	836.93
414.347	815.69
414.405	843.25
414.463	811.1
414.521	813.4
414.579	834.64
414.637	777.24
414.695	771.5
414.753	770.35
414.811	693.43
414.869	729.02
414.927	733.04
414.985	711.22
415.043	702.61
415.101	719.26
415.158	685.39
415.216	649.23
415.274	669.9
415.332	648.08
415.39	637.18
415.448	666.45
415.506	708.35
415.563	599.87
415.621	625.12
415.679	623.4
415.737	608.48
415.795	621.68
415.852	593.55
415.91	562.56
415.968	593.55
416.026	580.35
416.083	596.42
416.141	590.68
416.199	567.15
416.256	576.33
416.314	568.87
416.372	547.06
416.429	555.67
416.487	609.63
416.544	566.58
416.602	553.37
416.66	528.12
416.717	542.47
416.775	544.19
416.832	547.63
416.89	536.73
416.947	555.1
417.005	530.41
417.062	512.62
417.12	528.69
417.177	491.96
417.235	510.9
417.292	530.41
417.35	512.05
417.407	518.93
417.464	528.12
417.522	498.27
417.579	486.22
417.637	487.94
417.694	481.62
417.751	521.23
417.809	477.03
417.866	495.4
417.923	535.58
417.981	467.85
418.038	506.88
418.095	518.36
418.152	504.58
418.21	493.68
418.267	465.55
418.324	454.07
418.381	497.7
418.438	467.27
418.496	466.13
418.553	492.53
418.61	481.05
418.667	478.18
418.724	473.59
418.781	499.99
418.838	493.68
418.895	459.81
418.952	485.64
419.01	463.83
419.067	482.2
419.124	499.99
419.181	469.57
419.238	467.85
419.295	451.78
419.352	480.48
419.409	466.7
419.466	440.87
419.523	413.89
419.579	478.18
419.636	456.94
419.693	459.24
419.75	466.13
419.807	468.42
419.864	473.59
419.921	451.2
419.978	462.68
420.034	442.02
420.091	447.76
420.148	477.03
420.205	483.35
420.262	449.48
420.318	470.72
420.375	463.83
420.432	466.7
420.489	446.61
420.545	438
420.602	459.24
420.659	450.63
420.715	471.87
420.772	447.18
420.829	446.04
420.885	457.52
420.942	499.42
420.999	464.98
421.055	444.89
421.112	431.69
421.168	456.37
421.225	486.22
421.282	471.87
421.338	442.59
421.395	459.24
421.451	448.33
421.508	467.27
421.564	471.87
421.621	439.15
421.677	427.67
421.734	454.07
421.79	445.46
421.846	438.57
421.903	408.73
421.959	454.65
422.016	464.98
422.072	472.44
422.128	425.95
422.185	442.02
422.241	464.98
422.297	444.89
422.354	471.29
422.41	456.94
422.466	404.71
422.523	475.88
422.579	456.37
422.635	407.58
422.691	432.83
422.748	420.21
422.804	474.74
422.86	530.99
422.916	443.17
422.972	408.73
423.029	420.21
423.085	402.99
423.141	444.31
423.197	464.4
423.253	466.7
423.309	448.91
423.365	398.97
423.421	435.7
423.477	405.28
423.533	482.2
423.589	446.61
423.645	426.52
423.701	419.63
423.757	455.22
423.813	451.2
423.869	431.69
423.925	452.35
423.981	440.87
424.037	452.35
424.093	417.91
424.149	423.08
424.205	455.79
424.261	427.09
424.317	444.89
424.373	449.48
424.428	440.87
424.484	455.79
424.54	413.89
424.596	432.26
424.652	423.08
424.708	439.15
424.763	437.43
424.819	412.17
424.875	404.13
424.931	442.02
424.986	424.8
425.042	456.94
425.098	476.46
425.153	431.69
425.209	376.01
425.265	449.48
425.32	466.7
425.376	414.47
425.432	454.07
425.487	428.82
425.543	397.82
425.598	450.05
425.654	413.89
425.709	400.69
425.765	421.93
425.82	423.65
425.876	407.58
425.932	419.63
425.987	436.28
426.042	424.8
426.098	438.57
426.153	441.44
426.209	419.63
426.264	405.86
426.32	411.6
426.375	421.93
426.43	446.61
426.486	400.69
426.541	432.83
426.597	419.06
426.652	411.6
426.707	429.96
426.763	429.39
426.818	446.61
426.873	415.04
426.928	421.35
426.984	396.1
427.039	405.28
427.094	408.15
427.149	418.48
427.205	388.64
427.26	442.59
427.315	448.91
427.37	439.72
427.425	389.21
427.48	383.47
427.536	396.67
427.591	411.6
427.646	407.58
427.701	415.61
427.756	417.91
427.811	405.86
427.866	397.25
427.921	416.76
427.976	412.74
428.031	393.8
428.086	395.52
428.141	423.08
428.196	432.26
428.251	397.25
428.306	400.69
428.361	404.13
428.416	424.8
428.471	395.52
428.526	384.62
428.581	398.39
428.636	429.39
428.691	418.48
428.745	419.06
428.8	424.8
428.855	420.78
428.91	406.43
428.965	401.84
429.02	442.02
429.074	412.74
429.129	440.3
429.184	397.82
429.239	386.34
429.293	396.1
429.348	405.86
429.403	402.99
429.457	407.58
429.512	404.13
429.567	422.5
429.621	384.04
429.676	491.38
429.731	359.94
429.785	378.3
429.84	386.91
429.895	369.69
429.949	452.92
430.004	377.16
430.058	361.08
430.113	384.04
430.167	408.15
430.222	399.54
430.276	413.32
430.331	402.99
430.385	438.57
430.44	351.9
430.494	383.47
430.549	404.71
430.603	443.17
430.657	397.82
430.712	378.88
430.766	416.19
430.821	407.58
430.875	387.49
430.929	398.39
430.984	408.15
431.038	408.15
431.092	415.61
431.147	395.52
431.201	401.84
431.255	406.43
431.309	387.49
431.364	417.34
431.418	352.47
431.472	414.47
431.526	386.91
431.581	436.85
431.635	377.73
431.689	416.19
431.743	389.21
431.797	404.13
431.851	392.65
431.906	402.99
431.96	396.1
432.014	422.5
432.068	416.76
432.122	404.13
432.176	406.43
432.23	385.19
432.284	402.41
432.338	401.26
432.392	376.58
432.446	418.48
432.5	410.45
432.554	374.29
432.608	381.75
432.662	438.57
432.716	391.51
432.77	367.4
432.824	401.26
432.878	399.54
432.931	404.13
432.985	396.67
433.039	382.32
433.093	403.56
433.147	400.12
433.201	377.16
433.254	377.16
433.308	407
433.362	424.22
433.416	467.27
433.47	396.1
433.523	423.65
433.577	424.8
433.631	409.3
433.684	388.64
433.738	402.41
433.792	421.93
433.846	435.13
433.899	394.38
433.953	374.29
434.006	422.5
434.06	387.49
434.114	362.23
434.167	362.23
434.221	362.23
