Data from FLMS155811_12-33-19-528.txt Node
Date: Mon Mar 23 12:33:19 MDT 2020
User: ECEn Student
Spectrometer: FLMS15581
Trigger mode: 0
Integration Time (sec): 1.000000E-1
Scans to average: 1
Electric dark correction enabled: true
Nonlinearity correction enabled: false
Boxcar width: 0
XAxis mode: Wavelengths
Number of Pixels in Spectrum: 2048
>>>>>Begin Spectral Data<<<<<
298.026	4.02
298.106	4.02
298.185	4.02
298.265	-64.86
298.344	-97.01
298.424	-21.24
298.503	-103.89
298.583	-113.08
298.662	-14.35
298.741	-21.24
298.821	-113.08
298.9	-12.05
298.98	-16.65
299.059	10.91
299.138	-48.79
299.217	-7.46
299.297	56.83
299.376	22.39
299.455	100.45
299.535	176.22
299.614	105.04
299.693	114.23
299.772	153.26
299.852	146.37
299.931	247.4
300.01	258.88
300.089	217.55
300.168	226.73
300.247	219.84
300.327	279.54
300.406	279.54
300.485	263.47
300.564	327.76
300.643	334.64
300.722	396.64
300.801	387.45
300.88	336.94
300.959	327.76
301.038	355.31
301.117	380.56
301.196	334.64
301.275	355.31
301.354	382.86
301.433	396.64
301.512	415
301.591	378.27
301.67	415
301.749	442.56
301.828	311.68
301.907	458.63
301.985	435.67
302.064	454.04
302.143	472.4
302.222	366.79
302.301	380.56
302.38	401.23
302.458	350.72
302.537	442.56
302.616	408.12
302.695	359.9
302.773	405.82
302.852	334.64
302.931	343.83
303.01	373.68
303.088	362.2
303.167	440.26
303.246	369.08
303.324	387.45
303.403	401.23
303.481	346.12
303.56	426.48
303.639	362.2
303.717	366.79
303.796	396.64
303.874	350.72
303.953	286.43
304.032	419.6
304.11	307.09
304.189	398.93
304.267	330.05
304.346	316.28
304.424	382.86
304.502	364.49
304.581	410.41
304.659	330.05
304.738	405.82
304.816	364.49
304.895	378.27
304.973	378.27
305.051	366.79
305.13	348.42
305.208	323.16
305.286	375.97
305.365	270.36
305.443	385.16
305.521	412.71
305.6	330.05
305.678	371.38
305.756	378.27
305.834	394.34
305.913	385.16
305.991	348.42
306.069	318.57
306.147	334.64
306.225	348.42
306.304	353.01
306.382	421.89
306.46	396.64
306.538	392.04
306.616	353.01
306.694	410.41
306.772	440.26
306.85	343.83
306.929	382.86
307.007	364.49
307.085	369.08
307.163	380.56
307.241	401.23
307.319	369.08
307.397	387.45
307.475	334.64
307.553	410.41
307.631	359.9
307.709	454.04
307.786	403.52
307.864	415
307.942	401.23
308.02	408.12
308.098	378.27
308.176	408.12
308.254	389.75
308.332	369.08
308.409	350.72
308.487	449.44
308.565	382.86
308.643	428.78
308.721	412.71
308.798	431.08
308.876	408.12
308.954	364.49
309.032	355.31
309.109	375.97
309.187	389.75
309.265	369.08
309.342	373.68
309.42	291.02
309.498	366.79
309.575	281.84
309.653	426.48
309.731	424.19
309.808	355.31
309.886	380.56
309.963	382.86
310.041	382.86
310.119	440.26
310.196	387.45
310.274	350.72
310.351	359.9
310.429	401.23
310.506	412.71
310.584	435.67
310.661	348.42
310.738	348.42
310.816	405.82
310.893	408.12
310.971	396.64
311.048	375.97
311.126	325.46
311.203	371.38
311.28	419.6
311.358	417.3
311.435	408.12
311.512	392.04
311.59	428.78
311.667	415
311.744	373.68
311.821	405.82
311.899	396.64
311.976	369.08
312.053	380.56
312.13	415
312.208	353.01
312.285	366.79
312.362	375.97
312.439	447.15
312.516	375.97
312.593	488.48
312.671	343.83
312.748	353.01
312.825	373.68
312.902	366.79
312.979	421.89
313.056	437.96
313.133	447.15
313.21	382.86
313.287	371.38
313.364	339.24
313.441	382.86
313.518	350.72
313.595	447.15
313.672	405.82
313.749	366.79
313.826	373.68
313.903	403.52
313.98	451.74
314.057	398.93
314.134	389.75
314.211	410.41
314.287	435.67
314.364	353.01
314.441	451.74
314.518	378.27
314.595	424.19
314.672	415
314.748	373.68
314.825	330.05
314.902	394.34
314.979	454.04
315.055	403.52
315.132	437.96
315.209	357.6
315.286	339.24
315.362	378.27
315.439	426.48
315.516	373.68
315.592	454.04
315.669	408.12
315.746	371.38
315.822	341.53
315.899	424.19
315.975	336.94
316.052	364.49
316.128	323.16
316.205	385.16
316.282	403.52
316.358	410.41
316.435	506.84
316.511	389.75
316.588	353.01
316.664	472.4
316.741	392.04
316.817	495.36
316.893	424.19
316.97	392.04
317.046	442.56
317.123	387.45
317.199	421.89
317.275	421.89
317.352	419.6
317.428	454.04
317.504	403.52
317.581	385.16
317.657	371.38
317.733	433.37
317.81	392.04
317.886	339.24
317.962	449.44
318.038	451.74
318.115	444.85
318.191	396.64
318.267	472.4
318.343	394.34
318.419	389.75
318.496	470.11
318.572	385.16
318.648	437.96
318.724	389.75
318.8	410.41
318.876	412.71
318.952	408.12
319.028	424.19
319.105	433.37
319.181	336.94
319.257	403.52
319.333	419.6
319.409	426.48
319.485	394.34
319.561	405.82
319.637	426.48
319.713	415
319.789	396.64
319.865	398.93
319.94	394.34
320.016	387.45
320.092	375.97
320.168	440.26
320.244	419.6
320.32	408.12
320.396	467.81
320.472	412.71
320.547	467.81
320.623	410.41
320.699	442.56
320.775	408.12
320.851	398.93
320.926	398.93
321.002	396.64
321.078	398.93
321.154	355.31
321.229	415
321.305	373.68
321.381	435.67
321.456	309.39
321.532	456.33
321.608	444.85
321.683	392.04
321.759	378.27
321.835	373.68
321.91	433.37
321.986	350.72
322.061	373.68
322.137	394.34
322.212	415
322.288	403.52
322.364	426.48
322.439	433.37
322.515	408.12
322.59	403.52
322.666	394.34
322.741	474.7
322.816	389.75
322.892	410.41
322.967	426.48
323.043	417.3
323.118	470.11
323.193	382.86
323.269	392.04
323.344	437.96
323.42	451.74
323.495	435.67
323.57	424.19
323.646	410.41
323.721	346.12
323.796	389.75
323.871	410.41
323.947	467.81
324.022	396.64
324.097	437.96
324.172	387.45
324.248	378.27
324.323	380.56
324.398	472.4
324.473	415
324.548	412.71
324.623	454.04
324.699	346.12
324.774	424.19
324.849	408.12
324.924	444.85
324.999	396.64
325.074	405.82
325.149	307.09
325.224	424.19
325.299	387.45
325.374	444.85
325.449	357.6
325.524	456.33
325.599	477
325.674	394.34
325.749	447.15
325.824	398.93
325.899	456.33
325.974	389.75
326.049	421.89
326.124	382.86
326.199	405.82
326.273	419.6
326.348	405.82
326.423	398.93
326.498	410.41
326.573	454.04
326.648	447.15
326.722	440.26
326.797	346.12
326.872	401.23
326.947	465.52
327.021	419.6
327.096	371.38
327.171	424.19
327.245	470.11
327.32	428.78
327.395	419.6
327.47	350.72
327.544	403.52
327.619	426.48
327.693	396.64
327.768	428.78
327.843	458.63
327.917	449.44
327.992	359.9
328.066	394.34
328.141	346.12
328.215	440.26
328.29	435.67
328.364	385.16
328.439	408.12
328.513	474.7
328.588	412.71
328.662	401.23
328.737	426.48
328.811	359.9
328.886	415
328.96	417.3
329.035	424.19
329.109	401.23
329.183	403.52
329.258	398.93
329.332	382.86
329.406	348.42
329.481	488.48
329.555	408.12
329.629	460.92
329.704	392.04
329.778	375.97
329.852	426.48
329.926	534.4
330.001	412.71
330.075	396.64
330.149	371.38
330.223	410.41
330.297	398.93
330.372	481.59
330.446	389.75
330.52	442.56
330.594	437.96
330.668	428.78
330.742	415
330.816	433.37
330.89	403.52
330.964	437.96
331.038	447.15
331.113	431.08
331.187	380.56
331.261	463.22
331.335	460.92
331.409	470.11
331.483	486.18
331.557	378.27
331.63	419.6
331.704	449.44
331.778	431.08
331.852	394.34
331.926	403.52
332	447.15
332.074	454.04
332.148	412.71
332.222	426.48
332.295	371.38
332.369	493.07
332.443	424.19
332.517	412.71
332.591	433.37
332.665	433.37
332.738	437.96
332.812	398.93
332.886	454.04
332.959	334.64
333.033	394.34
333.107	396.64
333.181	447.15
333.254	460.92
333.328	483.88
333.402	435.67
333.475	440.26
333.549	437.96
333.622	449.44
333.696	442.56
333.77	410.41
333.843	499.96
333.917	401.23
333.99	431.08
334.064	403.52
334.137	396.64
334.211	396.64
334.284	493.07
334.358	385.16
334.431	421.89
334.505	394.34
334.578	454.04
334.652	396.64
334.725	412.71
334.799	435.67
334.872	472.4
334.945	442.56
335.019	426.48
335.092	499.96
335.165	456.33
335.239	470.11
335.312	463.22
335.385	465.52
335.459	424.19
335.532	460.92
335.605	394.34
335.678	460.92
335.752	433.37
335.825	417.3
335.898	458.63
335.971	454.04
336.045	481.59
336.118	431.08
336.191	424.19
336.264	499.96
336.337	428.78
336.41	401.23
336.483	467.81
336.557	463.22
336.63	410.41
336.703	428.78
336.776	442.56
336.849	449.44
336.922	437.96
336.995	410.41
337.068	428.78
337.141	421.89
337.214	458.63
337.287	474.7
337.36	382.86
337.433	415
337.506	444.85
337.579	431.08
337.652	401.23
337.725	456.33
337.797	421.89
337.87	437.96
337.943	449.44
338.016	433.37
338.089	534.4
338.162	481.59
338.235	428.78
338.307	449.44
338.38	412.71
338.453	458.63
338.526	465.52
338.598	460.92
338.671	421.89
338.744	421.89
338.817	467.81
338.889	428.78
338.962	513.73
339.035	518.32
339.107	426.48
339.18	421.89
339.253	470.11
339.325	435.67
339.398	493.07
339.47	456.33
339.543	431.08
339.616	472.4
339.688	442.56
339.761	479.29
339.833	479.29
339.906	472.4
339.978	433.37
340.051	495.36
340.123	431.08
340.196	490.77
340.268	428.78
340.341	495.36
340.413	408.12
340.485	449.44
340.558	437.96
340.63	405.82
340.703	444.85
340.775	493.07
340.847	449.44
340.92	428.78
340.992	504.55
341.064	479.29
341.137	470.11
341.209	499.96
341.281	415
341.354	454.04
341.426	467.81
341.498	431.08
341.57	502.25
341.643	518.32
341.715	442.56
341.787	440.26
341.859	467.81
341.931	392.04
342.003	511.44
342.076	458.63
342.148	440.26
342.22	513.73
342.292	470.11
342.364	447.15
342.436	463.22
342.508	472.4
342.58	440.26
342.652	417.3
342.724	460.92
342.796	442.56
342.868	428.78
342.94	486.18
343.012	442.56
343.084	472.4
343.156	454.04
343.228	451.74
343.3	536.69
343.372	477
343.444	516.03
343.516	488.48
343.588	458.63
343.66	410.41
343.731	412.71
343.803	412.71
343.875	481.59
343.947	440.26
344.019	506.84
344.09	477
344.162	458.63
344.234	474.7
344.306	458.63
344.377	444.85
344.449	463.22
344.521	435.67
344.593	456.33
344.664	426.48
344.736	451.74
344.808	465.52
344.879	474.7
344.951	516.03
345.023	456.33
345.094	449.44
345.166	392.04
345.237	396.64
345.309	435.67
345.38	447.15
345.452	481.59
345.524	447.15
345.595	472.4
345.667	415
345.738	529.8
345.81	470.11
345.881	465.52
345.953	442.56
346.024	463.22
346.095	451.74
346.167	481.59
346.238	447.15
346.31	449.44
346.381	493.07
346.452	509.14
346.524	410.41
346.595	529.8
346.666	532.1
346.738	433.37
346.809	460.92
346.88	506.84
346.952	474.7
347.023	477
347.094	536.69
347.165	499.96
347.237	421.89
347.308	493.07
347.379	504.55
347.45	506.84
347.521	497.66
347.593	495.36
347.664	479.29
347.735	458.63
347.806	481.59
347.877	454.04
347.948	582.61
348.019	408.12
348.09	477
348.161	428.78
348.233	516.03
348.304	552.76
348.375	552.76
348.446	481.59
348.517	479.29
348.588	527.51
348.659	513.73
348.73	499.96
348.801	548.17
348.871	527.51
348.942	506.84
349.013	490.77
349.084	479.29
349.155	511.44
349.226	502.25
349.297	518.32
349.368	534.4
349.439	467.81
349.509	506.84
349.58	529.8
349.651	534.4
349.722	545.88
349.793	522.92
349.863	527.51
349.934	442.56
350.005	522.92
350.076	511.44
350.146	513.73
350.217	506.84
350.288	550.47
350.358	527.51
350.429	534.4
350.5	522.92
350.57	444.85
350.641	559.65
350.711	589.5
350.782	518.32
350.853	532.1
350.923	525.21
350.994	522.92
351.064	587.2
351.135	589.5
351.205	527.51
351.276	522.92
351.346	614.76
351.417	651.49
351.487	642.31
351.558	557.36
351.628	527.51
351.699	610.16
351.769	582.61
351.84	495.36
351.91	580.32
351.98	676.75
352.051	640.01
352.121	548.17
352.191	646.9
352.262	692.82
352.332	676.75
352.402	713.48
352.473	722.67
352.543	754.81
352.613	759.41
352.683	796.14
352.754	745.63
352.824	777.77
352.894	729.56
352.964	819.1
353.035	777.77
353.105	927.01
353.175	956.86
353.245	892.57
353.315	830.58
353.385	947.68
353.455	954.57
353.526	1060.18
353.596	1092.33
353.666	1085.44
353.736	1115.29
353.806	1170.39
353.876	1200.24
353.946	1243.86
354.016	1253.05
354.086	1379.33
354.156	1429.84
354.226	1457.39
354.296	1558.42
354.366	1503.31
354.436	1574.49
354.506	1668.62
354.576	1723.73
354.645	1820.16
354.715	1815.57
354.785	1902.82
354.855	1985.47
354.925	1999.25
354.995	2070.43
355.065	2173.75
355.134	2345.95
355.204	2318.4
355.274	2504.37
355.344	2481.41
355.414	2738.57
355.483	2678.87
355.553	2844.18
355.623	2848.77
355.693	3016.38
355.762	3154.14
355.832	3289.61
355.902	3450.33
355.971	3567.42
356.041	3496.25
356.111	3689.11
356.18	3801.62
356.25	4074.84
356.319	4336.59
356.389	4249.34
356.459	4377.92
356.528	4545.52
356.598	4740.69
356.667	4963.4
356.737	5075.9
356.806	5268.77
356.876	5583.32
356.945	5721.08
357.015	5773.89
357.084	5787.67
357.154	6315.75
357.223	6368.56
357.292	6699.18
357.362	6738.21
357.431	7185.94
357.501	7114.76
357.57	7431.61
357.639	7776.01
357.709	8019.39
357.778	8115.82
357.847	8267.36
357.917	8806.92
357.986	8979.12
358.055	9022.74
358.124	9479.65
358.194	9775.83
358.263	10120.24
358.332	10352.13
358.401	10609.29
358.471	10882.51
358.54	11256.76
358.609	11484.07
358.678	12030.52
358.747	12126.95
358.816	12498.9
358.886	12900.7
358.955	13066.02
359.024	13532.11
359.093	13695.12
359.162	14386.22
359.231	14512.5
359.3	15173.75
359.369	15329.88
359.438	15616.88
359.507	16151.85
359.576	16402.12
359.645	16976.12
359.714	17306.75
359.783	17534.05
359.852	17961.11
359.921	18643.02
359.99	18842.78
360.059	19380.04
360.128	19919.6
360.197	19917.31
360.266	20842.6
360.334	21180.11
360.403	22041.12
360.472	22293.68
360.541	22383.22
360.61	23209.79
360.679	23680.47
360.747	24355.5
360.816	24601.17
360.885	25374.92
360.954	25503.5
361.022	26442.57
361.091	26490.78
361.16	26851.26
361.228	27666.34
361.297	28529.64
361.366	29025.58
361.434	29289.62
361.503	29877.4
361.572	30281.5
361.64	30782.03
361.709	31581.04
361.778	31923.14
361.846	32570.62
361.915	33365.04
361.983	33629.08
362.052	34014.81
362.12	34949.28
362.189	35282.2
362.257	36143.21
362.326	36958.29
362.394	37004.21
362.463	37725.16
362.531	37968.54
362.6	38666.52
362.668	39426.5
362.737	39876.52
362.805	40443.63
362.873	40606.65
362.942	41162.28
363.01	42530.71
363.079	42347.03
363.147	43230.99
363.215	44186.13
363.284	44280.27
363.352	44656.81
363.42	45386.94
363.488	45469.6
363.557	46006.86
363.625	46215.8
363.693	46909.2
363.761	47623.26
363.83	48087.05
363.898	48925.09
363.966	49101.89
364.034	49811.35
364.102	49783.8
364.171	50364.69
364.239	50341.73
364.307	51368.05
364.375	51542.54
364.443	51648.16
364.511	51999.45
364.579	52589.52
364.647	53041.84
364.715	53124.49
364.783	53416.09
364.851	54056.67
364.919	54116.37
364.987	54426.33
365.055	54559.5
365.123	54924.57
365.191	55305.7
365.259	55330.96
365.327	55595
365.395	55675.36
365.463	56139.16
365.531	56453.71
365.599	56354.98
365.667	56437.64
365.735	56715.45
365.802	57062.15
365.87	57147.1
365.938	57238.94
366.006	57440.99
366.074	57571.86
366.142	57688.96
366.209	57613.19
366.277	58003.51
366.345	57806.06
366.413	58398.43
366.48	58067.8
366.548	58226.23
366.616	58279.04
366.683	58368.58
366.751	58527
366.819	58729.05
366.886	58735.94
366.954	58774.97
367.022	58779.57
367.089	58765.79
367.157	58898.96
367.224	58999.98
367.292	58839.26
367.36	58970.13
367.427	59114.78
367.495	58850.74
367.562	58846.15
367.63	59004.57
367.697	59034.42
367.765	59050.5
367.832	59043.61
367.9	58908.14
367.967	58637.21
368.034	58928.81
368.102	58839.26
368.169	58993.09
368.237	58777.27
368.304	58848.45
368.371	58646.4
368.439	58738.24
368.506	58559.15
368.573	58800.23
368.641	58559.15
368.708	58435.16
368.775	58306.59
368.843	58295.11
368.91	58292.81
368.977	58161.94
369.044	58256.08
369.112	58223.93
369.179	58113.72
369.246	57799.17
369.313	58079.28
369.38	57661.41
369.448	57746.36
369.515	57714.22
369.582	57567.27
369.649	57367.52
369.716	57346.86
369.783	57149.4
369.85	56990.97
369.917	57087.41
369.984	56970.31
370.052	57119.55
370.119	56878.47
370.186	56777.45
370.253	56394.01
370.32	56361.87
370.387	56327.43
370.454	56113.9
370.521	56178.19
370.587	55914.15
370.654	55581.22
370.721	55645.51
370.788	55415.91
370.855	55163.35
370.922	55163.35
370.989	55053.14
371.056	54938.34
371.123	54924.57
371.189	54853.39
371.256	54371.23
371.323	54385
371.39	53905.14
371.457	54031.42
371.523	53540.07
371.59	53032.65
371.657	53393.13
371.724	53585.99
371.79	53161.23
371.857	53218.63
371.924	53195.67
371.991	52832.9
372.057	52465.54
372.124	52245.12
372.191	52144.1
372.257	52105.07
372.324	51588.46
372.39	51588.46
372.457	51156.81
372.524	51083.34
372.59	51152.22
372.657	50782.56
372.723	50259.07
372.79	50800.93
372.856	49873.34
372.923	50169.53
372.989	49636.86
373.056	49710.33
373.122	48842.44
373.189	48929.69
373.255	48736.82
373.322	48084.75
373.388	47887.3
373.454	47953.88
373.521	47689.84
373.587	47676.06
373.654	47570.45
373.72	47384.47
373.786	46472.95
373.853	46711.74
373.919	46323.71
373.985	45834.66
374.052	45499.45
374.118	45451.23
374.184	44964.48
374.25	44592.52
374.317	45164.23
374.383	44656.81
374.449	44078.22
374.515	43646.57
374.581	43230.99
374.648	43290.69
374.714	43088.64
374.78	42891.18
374.846	42073.8
374.912	42268.96
374.978	41949.82
375.044	41407.96
375.11	41479.13
375.177	40964.83
375.243	40462
375.309	40209.44
375.375	40402.31
375.441	39640.03
375.507	39387.47
375.573	39341.55
375.639	38939.75
375.705	38765.25
375.771	38370.34
375.837	38087.93
375.903	37890.47
375.968	37217.74
376.034	36836.6
376.1	37190.19
376.166	36308.52
376.232	36026.11
376.298	36094.99
376.364	35684.01
376.43	34992.91
376.495	35029.64
376.561	34868.92
376.627	34223.74
376.693	34262.78
376.759	33686.48
376.824	33374.22
376.89	33642.85
376.956	33202.02
377.022	32880.58
377.087	32598.17
377.153	32308.87
377.219	31987.43
377.284	31891
377.35	31427.2
377.416	30915.19
377.481	30586.86
377.547	30531.76
377.613	30203.43
377.678	29764.89
377.744	29461.82
377.809	29147.27
377.875	28857.97
377.94	28798.27
378.006	28529.64
378.071	28277.08
378.137	28169.17
378.202	27817.88
378.268	27829.36
378.333	27048.71
378.399	27234.69
378.464	26858.15
378.53	26642.32
378.595	26417.31
378.661	26490.78
378.726	25492.02
378.791	25234.87
378.857	24984.6
378.922	24977.71
378.987	24559.84
379.053	24550.66
379.118	24477.18
379.183	24091.45
379.249	24077.68
379.314	23854.97
379.379	23400.36
379.444	23294.74
379.51	22826.35
379.575	22833.24
379.64	22429.14
379.705	22376.33
379.771	22314.34
379.836	21969.94
379.901	21903.36
379.966	21310.99
380.031	21552.07
380.096	21386.75
380.161	21049.24
380.227	20833.42
380.292	20936.74
380.357	20514.27
380.422	20206.61
380.487	19772.66
380.552	19820.88
380.617	19421.37
380.682	19655.56
380.747	19469.59
380.812	18895.58
380.877	18693.54
380.942	18631.54
381.007	18418.01
381.072	18202.19
381.137	18227.45
381.202	18149.38
381.266	17915.19
381.331	17635.08
381.396	17582.27
381.461	17102.4
381.526	16888.87
381.591	17157.51
381.656	16599.57
381.72	16537.58
381.785	16356.2
381.85	16273.54
381.915	15915.36
381.979	15825.82
382.044	15862.56
382.109	15828.12
382.174	15635.25
382.238	15543.41
382.303	15088.8
382.368	15244.93
382.432	15187.53
382.497	14879.86
382.562	14774.25
382.626	14436.73
382.691	14620.41
382.756	14347.19
382.82	14032.64
382.885	13979.83
382.949	13972.94
383.014	13959.16
383.078	13591.8
383.143	13343.83
383.208	13183.11
383.272	12987.95
383.337	13077.5
383.401	13017.8
383.465	12907.59
383.53	12703.25
383.594	12691.77
383.659	12544.82
383.723	12143.02
383.788	12207.31
383.852	11934.08
383.916	11952.45
383.981	11800.91
384.045	11947.86
384.109	11915.72
384.174	11481.77
384.238	11431.26
384.302	11401.41
384.367	11396.82
384.431	11091.45
384.495	11098.34
384.56	10673.57
384.624	10710.31
384.688	10666.69
384.752	10623.06
384.816	10228.15
384.881	10285.55
384.945	10060.54
385.009	9957.22
385.073	9975.59
385.137	9824.05
385.201	9766.65
385.265	9608.23
385.33	9504.91
385.394	9555.42
385.458	9525.57
385.522	9456.69
385.586	9380.92
385.65	9045.7
385.714	9089.33
385.778	8866.61
385.842	8721.97
385.906	8841.36
385.97	8646.2
386.034	8680.64
386.098	8556.65
386.162	8377.56
386.226	8065.31
386.29	8276.54
386.354	8407.41
386.417	8248.99
386.481	7838
386.545	7847.19
386.609	7916.07
386.673	7702.54
386.737	7594.63
386.8	7583.15
386.864	7619.88
386.928	7374.21
386.992	7371.91
387.056	7259.41
387.119	7252.52
387.183	7004.55
387.247	7061.95
387.31	6940.26
387.374	6839.24
387.438	6687.7
387.502	6738.21
387.565	6676.22
387.629	6628.01
387.692	6632.6
387.756	6345.6
387.82	6499.43
387.883	6299.68
387.947	6425.96
388.01	6258.35
388.074	6102.22
388.138	6026.45
388.201	5904.76
388.265	5975.94
388.328	5957.57
388.392	5856.55
388.455	5863.43
388.519	5684.35
388.582	5535.1
388.645	5493.78
388.709	5590.21
388.772	5480
388.836	5413.42
388.899	5232.03
388.962	5335.35
389.026	5310.1
389.089	5153.97
389.153	5241.22
389.216	5131.01
389.279	5091.98
389.343	5105.75
389.406	4981.77
389.469	4722.32
389.532	4915.18
389.596	4786.61
389.659	4724.61
389.722	4639.66
389.785	4619
389.848	4623.59
389.912	4453.68
389.975	4350.36
390.038	4426.13
390.101	4315.92
390.164	4451.39
390.227	4352.66
390.291	4350.36
390.354	4214.9
390.417	4242.45
390.48	4171.28
390.543	4040.4
390.606	4015.15
390.669	3985.3
390.732	3884.27
390.795	3925.6
390.858	3911.83
390.921	3962.34
390.984	3746.51
391.047	3764.88
391.11	3753.4
391.173	3677.63
391.236	3716.67
391.299	3668.45
391.362	3470.99
391.424	3601.86
391.487	3551.35
391.55	3477.88
391.613	3422.78
391.676	3434.26
391.739	3406.7
391.802	3468.7
391.864	3335.53
391.927	3376.86
391.99	3218.43
392.053	3163.33
392.115	3128.89
392.178	3149.55
392.241	3101.33
392.304	3151.85
392.366	3133.48
392.429	2981.94
392.492	3016.38
392.554	2995.72
392.617	2883.21
392.68	2823.52
392.742	2903.88
392.805	2885.51
392.867	2777.6
392.93	2864.85
392.992	2701.83
393.055	2671.98
393.118	2671.98
393.18	2715.61
393.243	2759.23
393.305	2671.98
393.368	2575.55
393.43	2580.14
393.493	2568.66
393.555	2655.91
393.618	2566.36
393.68	2444.68
393.742	2456.16
393.805	2651.32
393.867	2451.56
393.93	2403.35
393.992	2387.28
394.054	2348.24
394.117	2339.06
394.179	2355.13
394.241	2366.61
394.304	2235.74
394.366	2311.51
394.428	2215.08
394.49	2302.32
394.553	2279.36
394.615	2205.89
394.677	2247.22
394.739	2180.64
394.802	2141.6
394.864	2157.67
394.926	2166.86
394.988	2040.58
395.05	2123.23
395.112	2185.23
395.174	2033.69
395.237	2070.43
395.299	1951.03
395.361	1983.18
395.423	1992.36
395.485	1889.04
395.547	1930.37
395.609	1861.49
395.671	1996.95
395.733	1877.56
395.795	1948.74
395.857	1905.11
395.919	1820.16
395.981	1870.67
396.043	1833.94
396.105	1827.05
396.167	1778.83
396.229	1762.76
396.291	1801.79
396.352	1705.36
396.414	1758.17
396.476	1778.83
396.538	1735.21
396.6	1680.1
396.662	1728.32
396.724	1618.11
396.785	1608.93
396.847	1583.67
396.909	1611.22
396.971	1569.9
397.032	1592.86
397.094	1551.53
397.156	1544.64
397.218	1484.94
397.279	1533.16
397.341	1526.27
397.403	1546.94
397.464	1501.02
397.526	1512.5
397.588	1478.06
397.649	1455.1
397.711	1494.13
397.772	1480.35
397.834	1443.62
397.896	1331.11
397.957	1324.22
398.019	1370.14
398.08	1409.18
398.142	1418.36
398.203	1422.95
398.265	1303.56
398.326	1354.07
398.388	1310.45
398.449	1278.3
398.511	1390.81
398.572	1197.94
398.633	1255.34
398.695	1246.16
398.756	1335.7
398.818	1204.83
398.879	1223.2
398.94	1250.75
399.002	1209.42
399.063	1264.53
399.124	1197.94
399.186	1101.51
399.247	1174.98
399.308	1172.69
399.369	1227.79
399.431	1122.17
399.492	1092.33
399.553	1216.31
399.614	1149.73
399.676	1135.95
399.737	1119.88
399.798	1069.37
399.859	1090.03
399.92	1124.47
399.981	1112.99
400.042	1115.29
400.104	1135.95
400.165	1112.99
400.226	1011.97
400.287	1064.77
400.348	956.86
400.409	966.05
400.47	1119.88
400.531	1064.77
400.592	1055.59
400.653	1051
400.714	1037.22
400.775	922.42
400.836	1055.59
400.897	1051
400.958	989.01
401.019	945.38
401.08	1057.89
401.141	1028.04
401.201	998.19
401.262	984.41
401.323	871.91
401.384	959.16
401.445	1014.26
401.506	933.9
401.567	954.57
401.627	927.01
401.688	897.17
401.749	869.61
401.81	961.45
401.87	904.05
401.931	922.42
401.992	892.57
402.053	897.17
402.113	892.57
402.174	846.65
402.235	910.94
402.295	894.87
402.356	878.8
402.417	853.54
402.477	825.99
402.538	917.83
402.598	906.35
402.659	842.06
402.719	876.5
402.78	807.62
402.841	844.36
402.901	855.84
402.962	828.29
403.022	869.61
403.083	825.99
403.143	807.62
403.204	821.4
403.264	812.21
403.324	727.26
403.385	729.56
403.445	761.7
403.506	704.3
403.566	800.73
403.627	798.44
403.687	819.1
403.747	784.66
403.808	791.55
403.868	715.78
403.928	780.07
403.989	798.44
404.049	782.37
404.109	697.41
404.169	761.7
404.23	752.52
404.29	738.74
404.35	706.6
404.41	747.93
404.47	738.74
404.531	757.11
404.591	754.81
404.651	757.11
404.711	722.67
404.771	672.16
404.831	699.71
404.892	770.89
404.952	676.75
405.012	690.52
405.072	770.89
405.132	729.56
405.192	665.27
405.252	662.97
405.312	729.56
405.372	702
405.432	630.83
405.492	685.93
405.552	656.08
405.612	617.05
405.672	640.01
405.732	690.52
405.792	685.93
405.852	672.16
405.912	623.94
405.971	741.04
406.031	665.27
406.091	630.83
406.151	614.76
406.211	614.76
406.271	672.16
406.33	667.56
406.39	548.17
406.45	665.27
406.51	596.39
406.57	591.8
406.629	603.28
406.689	621.64
406.749	653.79
406.808	591.8
406.868	676.75
406.928	561.95
406.988	584.91
407.047	633.12
407.107	598.68
407.166	617.05
407.226	628.53
407.286	584.91
407.345	633.12
407.405	633.12
407.464	522.92
407.524	571.13
407.584	580.32
407.643	541.28
407.703	614.76
407.762	596.39
407.822	550.47
407.881	656.08
407.941	518.32
408	568.84
408.059	587.2
408.119	545.88
408.178	557.36
408.238	584.91
408.297	536.69
408.356	578.02
408.416	594.09
408.475	552.76
408.535	571.13
408.594	571.13
408.653	555.06
408.712	598.68
408.772	568.84
408.831	545.88
408.89	509.14
408.95	566.54
409.009	472.4
409.068	527.51
409.127	557.36
409.186	525.21
409.246	497.66
409.305	520.62
409.364	598.68
409.423	502.25
409.482	541.28
409.541	541.28
409.6	538.99
409.66	541.28
409.719	428.78
409.778	578.02
409.837	509.14
409.896	589.5
409.955	504.55
410.014	584.91
410.073	555.06
410.132	557.36
410.191	578.02
410.25	495.36
410.309	538.99
410.368	465.52
410.427	511.44
410.486	467.81
410.545	541.28
410.603	520.62
410.662	538.99
410.721	442.56
410.78	532.1
410.839	545.88
410.898	502.25
410.957	511.44
411.015	532.1
411.074	495.36
411.133	451.74
411.192	442.56
411.25	483.88
411.309	499.96
411.368	458.63
411.427	504.55
411.485	504.55
411.544	543.58
411.603	520.62
411.661	495.36
411.72	467.81
411.779	513.73
411.837	431.08
411.896	511.44
411.955	486.18
412.013	490.77
412.072	486.18
412.13	555.06
412.189	497.66
412.247	431.08
412.306	497.66
412.364	550.47
412.423	451.74
412.481	463.22
412.54	477
412.598	522.92
412.657	481.59
412.715	458.63
412.774	516.03
412.832	463.22
412.891	477
412.949	465.52
413.007	463.22
413.066	495.36
413.124	392.04
413.182	467.81
413.241	465.52
413.299	470.11
413.357	486.18
413.416	451.74
413.474	477
413.532	474.7
413.59	421.89
413.649	444.85
413.707	463.22
413.765	550.47
413.823	437.96
413.881	499.96
413.94	447.15
413.998	502.25
414.056	454.04
414.114	465.52
414.172	447.15
414.23	479.29
414.288	456.33
414.347	456.33
414.405	465.52
414.463	405.82
414.521	495.36
414.579	470.11
414.637	410.41
414.695	424.19
414.753	426.48
414.811	449.44
414.869	398.93
414.927	378.27
414.985	426.48
415.043	428.78
415.101	435.67
415.158	529.8
415.216	431.08
415.274	474.7
415.332	410.41
415.39	465.52
415.448	465.52
415.506	348.42
415.563	410.41
415.621	401.23
415.679	497.66
415.737	516.03
415.795	440.26
415.852	470.11
415.91	415
415.968	454.04
416.026	495.36
416.083	449.44
416.141	458.63
416.199	431.08
416.256	415
416.314	454.04
416.372	458.63
416.429	435.67
416.487	412.71
416.544	499.96
416.602	474.7
416.66	394.34
416.717	456.33
416.775	440.26
416.832	437.96
416.89	410.41
416.947	472.4
417.005	497.66
417.062	412.71
417.12	493.07
417.177	437.96
417.235	415
417.292	417.3
417.35	509.14
417.407	451.74
417.464	410.41
417.522	380.56
417.579	424.19
417.637	401.23
417.694	486.18
417.751	415
417.809	497.66
417.866	509.14
417.923	437.96
417.981	481.59
418.038	412.71
418.095	375.97
418.152	410.41
418.21	442.56
418.267	470.11
418.324	486.18
418.381	472.4
418.438	424.19
418.496	426.48
418.553	444.85
418.61	463.22
418.667	447.15
418.724	444.85
418.781	401.23
418.838	401.23
418.895	392.04
418.952	415
419.01	447.15
419.067	442.56
419.124	470.11
419.181	433.37
419.238	394.34
419.295	433.37
419.352	403.52
419.409	417.3
419.466	417.3
419.523	408.12
419.579	458.63
419.636	449.44
419.693	382.86
419.75	378.27
419.807	410.41
419.864	431.08
419.921	463.22
419.978	410.41
420.034	481.59
420.091	447.15
420.148	481.59
420.205	460.92
420.262	373.68
420.318	415
420.375	456.33
420.432	387.45
420.489	426.48
420.545	437.96
420.602	454.04
420.659	369.08
420.715	394.34
420.772	442.56
420.829	359.9
420.885	415
420.942	398.93
420.999	490.77
421.055	458.63
421.112	412.71
421.168	421.89
421.225	456.33
421.282	396.64
421.338	380.56
421.395	389.75
421.451	412.71
421.508	428.78
421.564	339.24
421.621	396.64
421.677	369.08
421.734	366.79
421.79	392.04
421.846	449.44
421.903	403.52
421.959	375.97
422.016	403.52
422.072	410.41
422.128	454.04
422.185	403.52
422.241	330.05
422.297	389.75
422.354	405.82
422.41	415
422.466	412.71
422.523	527.51
422.579	387.45
422.635	417.3
422.691	371.38
422.748	398.93
422.804	405.82
422.86	408.12
422.916	415
422.972	419.6
423.029	424.19
423.085	408.12
423.141	346.12
423.197	421.89
423.253	447.15
423.309	431.08
423.365	387.45
423.421	419.6
423.477	330.05
423.533	364.49
423.589	426.48
423.645	362.2
423.701	396.64
423.757	366.79
423.813	437.96
423.869	497.66
423.925	428.78
423.981	449.44
424.037	421.89
424.093	437.96
424.149	375.97
424.205	387.45
424.261	366.79
424.317	412.71
424.373	309.39
424.428	408.12
424.484	398.93
424.54	394.34
424.596	426.48
424.652	419.6
424.708	401.23
424.763	396.64
424.819	362.2
424.875	424.19
424.931	378.27
424.986	341.53
425.042	426.48
425.098	346.12
425.153	458.63
425.209	375.97
425.265	353.01
425.32	291.02
425.376	364.49
425.432	398.93
425.487	440.26
425.543	392.04
425.598	405.82
425.654	378.27
425.709	424.19
425.765	403.52
425.82	382.86
425.876	389.75
425.932	339.24
425.987	394.34
426.042	426.48
426.098	387.45
426.153	401.23
426.209	412.71
426.264	458.63
426.32	433.37
426.375	380.56
426.43	396.64
426.486	371.38
426.541	339.24
426.597	394.34
426.652	419.6
426.707	366.79
426.763	373.68
426.818	449.44
426.873	398.93
426.928	479.29
426.984	408.12
427.039	405.82
427.094	403.52
427.149	382.86
427.205	486.18
427.26	401.23
427.315	362.2
427.37	348.42
427.425	433.37
427.48	389.75
427.536	378.27
427.591	378.27
427.646	398.93
427.701	357.6
427.756	359.9
427.811	380.56
427.866	454.04
427.921	428.78
427.976	421.89
428.031	348.42
428.086	313.98
428.141	359.9
428.196	433.37
428.251	412.71
428.306	398.93
428.361	371.38
428.416	398.93
428.471	366.79
428.526	417.3
428.581	465.52
428.636	433.37
428.691	318.57
428.745	417.3
428.8	336.94
428.855	437.96
428.91	426.48
428.965	382.86
429.02	392.04
429.074	396.64
429.129	451.74
429.184	405.82
429.239	415
429.293	396.64
429.348	325.46
429.403	389.75
429.457	334.64
429.512	394.34
429.567	348.42
429.621	470.11
429.676	442.56
429.731	401.23
429.785	389.75
429.84	408.12
429.895	389.75
429.949	380.56
430.004	378.27
430.058	401.23
430.113	373.68
430.167	373.68
430.222	392.04
430.276	385.16
430.331	378.27
430.385	369.08
430.44	336.94
430.494	401.23
430.549	385.16
430.603	357.6
430.657	449.44
430.712	396.64
430.766	387.45
430.821	311.68
430.875	417.3
430.929	375.97
430.984	421.89
431.038	421.89
431.092	408.12
431.147	392.04
431.201	403.52
431.255	353.01
431.309	435.67
431.364	313.98
431.418	437.96
431.472	467.81
431.526	415
431.581	332.35
431.635	412.71
431.689	378.27
431.743	362.2
431.797	394.34
431.851	394.34
431.906	454.04
431.96	343.83
432.014	336.94
432.068	403.52
432.122	389.75
432.176	401.23
432.23	405.82
432.284	359.9
432.338	440.26
432.392	373.68
432.446	373.68
432.5	398.93
432.554	408.12
432.608	353.01
432.662	405.82
432.716	401.23
432.77	350.72
432.824	346.12
432.878	392.04
432.931	412.71
432.985	465.52
433.039	371.38
433.093	401.23
433.147	415
433.201	366.79
433.254	424.19
433.308	392.04
433.362	428.78
433.416	435.67
433.47	366.79
433.523	385.16
433.577	332.35
433.631	304.8
433.684	378.27
433.738	362.2
433.792	325.46
433.846	366.79
433.899	343.83
433.953	394.34
434.006	424.19
434.06	364.49
434.114	408.12
434.167	408.12
434.221	408.12
