Data from FLMS155811_12-33-18-628.txt Node
Date: Mon Mar 23 12:33:18 MDT 2020
User: ECEn Student
Spectrometer: FLMS15581
Trigger mode: 0
Integration Time (sec): 1.000000E-1
Scans to average: 1
Electric dark correction enabled: true
Nonlinearity correction enabled: false
Boxcar width: 0
XAxis mode: Wavelengths
Number of Pixels in Spectrum: 2048
>>>>>Begin Spectral Data<<<<<
298.026	6.03
298.106	6.03
298.185	6.03
298.265	-97.29
298.344	-90.41
298.424	-69.74
298.503	-42.19
298.583	-69.74
298.662	-88.11
298.741	-90.41
298.821	-37.6
298.9	-46.78
298.98	-33.01
299.059	-19.23
299.138	-7.75
299.217	61.13
299.297	61.13
299.376	136.9
299.455	79.5
299.535	42.76
299.614	123.12
299.693	146.08
299.772	70.32
299.852	201.19
299.931	260.88
300.01	219.56
300.089	226.44
300.168	320.58
300.247	286.14
300.327	334.36
300.406	276.96
300.485	242.52
300.564	345.84
300.643	290.73
300.722	334.36
300.801	368.8
300.88	283.84
300.959	274.66
301.038	325.17
301.117	412.42
301.196	368.8
301.275	451.45
301.354	355.02
301.433	398.64
301.512	341.24
301.591	345.84
301.67	391.76
301.749	398.64
301.828	426.2
301.907	419.31
301.985	394.05
302.064	348.13
302.143	375.68
302.222	371.09
302.301	348.13
302.38	410.12
302.458	387.16
302.537	419.31
302.616	371.09
302.695	400.94
302.773	334.36
302.852	423.9
302.931	375.68
303.01	417.01
303.088	407.83
303.167	343.54
303.246	332.06
303.324	341.24
303.403	449.16
303.481	343.54
303.56	366.5
303.639	350.43
303.717	364.2
303.796	382.57
303.874	343.54
303.953	309.1
304.032	359.61
304.11	398.64
304.189	380.28
304.267	361.91
304.346	366.5
304.424	373.39
304.502	320.58
304.581	288.44
304.659	352.72
304.738	368.8
304.816	371.09
304.895	364.2
304.973	325.17
305.051	417.01
305.13	345.84
305.208	389.46
305.286	412.42
305.365	338.95
305.443	384.87
305.521	389.46
305.6	352.72
305.678	341.24
305.756	336.65
305.834	313.69
305.913	394.05
305.991	334.36
306.069	382.57
306.147	449.16
306.225	400.94
306.304	400.94
306.382	366.5
306.46	338.95
306.538	405.53
306.616	375.68
306.694	380.28
306.772	368.8
306.85	377.98
306.929	377.98
307.007	318.28
307.085	343.54
307.163	400.94
307.241	446.86
307.319	382.57
307.397	421.6
307.475	302.21
307.553	361.91
307.631	357.32
307.709	403.24
307.786	355.02
307.864	377.98
307.942	357.32
308.02	377.98
308.098	377.98
308.176	417.01
308.254	391.76
308.332	396.35
308.409	373.39
308.487	341.24
308.565	338.95
308.643	343.54
308.721	345.84
308.798	361.91
308.876	382.57
308.954	368.8
309.032	338.95
309.109	315.99
309.187	371.09
309.265	348.13
309.342	359.61
309.42	332.06
309.498	430.79
309.575	329.76
309.653	451.45
309.731	336.65
309.808	341.24
309.886	373.39
309.963	428.49
310.041	359.61
310.119	329.76
310.196	373.39
310.274	430.79
310.351	366.5
310.429	437.68
310.506	309.1
310.584	375.68
310.661	364.2
310.738	364.2
310.816	375.68
310.893	435.38
310.971	414.72
311.048	417.01
311.126	417.01
311.203	368.8
311.28	421.6
311.358	423.9
311.435	426.2
311.512	384.87
311.59	446.86
311.667	414.72
311.744	396.35
311.821	343.54
311.899	387.16
311.976	375.68
312.053	341.24
312.13	359.61
312.208	444.56
312.285	322.88
312.362	387.16
312.439	377.98
312.516	451.45
312.593	458.34
312.671	410.12
312.748	400.94
312.825	387.16
312.902	377.98
312.979	437.68
313.056	435.38
313.133	426.2
313.21	368.8
313.287	382.57
313.364	343.54
313.441	394.05
313.518	412.42
313.595	368.8
313.672	384.87
313.749	380.28
313.826	359.61
313.903	483.6
313.98	377.98
314.057	451.45
314.134	371.09
314.211	414.72
314.287	329.76
314.364	419.31
314.441	391.76
314.518	357.32
314.595	391.76
314.672	368.8
314.748	407.83
314.825	426.2
314.902	446.86
314.979	384.87
315.055	359.61
315.132	449.16
315.209	389.46
315.286	426.2
315.362	359.61
315.439	364.2
315.516	423.9
315.592	407.83
315.669	371.09
315.746	405.53
315.822	421.6
315.899	396.35
315.975	394.05
316.052	421.6
316.128	400.94
316.205	405.53
316.282	368.8
316.358	446.86
316.435	419.31
316.511	439.97
316.588	465.23
316.664	382.57
316.741	343.54
316.817	389.46
316.893	410.12
316.97	417.01
317.046	375.68
317.123	366.5
317.199	389.46
317.275	398.64
317.352	421.6
317.428	433.08
317.504	355.02
317.581	407.83
317.657	403.24
317.733	414.72
317.81	382.57
317.886	394.05
317.962	357.32
318.038	405.53
318.115	456.04
318.191	421.6
318.267	433.08
318.343	433.08
318.419	373.39
318.496	449.16
318.572	350.43
318.648	442.27
318.724	336.65
318.8	417.01
318.876	414.72
318.952	446.86
319.028	433.08
319.105	417.01
319.181	375.68
319.257	419.31
319.333	467.52
319.409	391.76
319.485	421.6
319.561	405.53
319.637	366.5
319.713	419.31
319.789	398.64
319.865	377.98
319.94	405.53
320.016	446.86
320.092	435.38
320.168	412.42
320.244	377.98
320.32	327.47
320.396	380.28
320.472	426.2
320.547	350.43
320.623	405.53
320.699	361.91
320.775	352.72
320.851	398.64
320.926	400.94
321.002	410.12
321.078	426.2
321.154	407.83
321.229	412.42
321.305	435.38
321.381	398.64
321.456	407.83
321.532	394.05
321.608	446.86
321.683	384.87
321.759	417.01
321.835	375.68
321.91	419.31
321.986	449.16
322.061	400.94
322.137	398.64
322.212	446.86
322.288	435.38
322.364	368.8
322.439	453.75
322.515	380.28
322.59	421.6
322.666	403.24
322.741	396.35
322.816	403.24
322.892	462.93
322.967	469.82
323.043	479
323.118	382.57
323.193	400.94
323.269	384.87
323.344	382.57
323.42	437.68
323.495	444.56
323.57	462.93
323.646	465.23
323.721	426.2
323.796	412.42
323.871	417.01
323.947	412.42
324.022	417.01
324.097	449.16
324.172	368.8
324.248	394.05
324.323	391.76
324.398	407.83
324.473	442.27
324.548	382.57
324.623	414.72
324.699	412.42
324.774	384.87
324.849	364.2
324.924	403.24
324.999	442.27
325.074	405.53
325.149	364.2
325.224	412.42
325.299	387.16
325.374	405.53
325.449	364.2
325.524	403.24
325.599	446.86
325.674	437.68
325.749	474.41
325.824	449.16
325.899	364.2
325.974	407.83
326.049	444.56
326.124	449.16
326.199	442.27
326.273	462.93
326.348	467.52
326.423	389.46
326.498	456.04
326.573	405.53
326.648	412.42
326.722	364.2
326.797	380.28
326.872	394.05
326.947	414.72
327.021	391.76
327.096	462.93
327.171	458.34
327.245	428.49
327.32	368.8
327.395	343.54
327.47	398.64
327.544	442.27
327.619	348.13
327.693	419.31
327.768	380.28
327.843	380.28
327.917	423.9
327.992	368.8
328.066	417.01
328.141	421.6
328.215	375.68
328.29	419.31
328.364	423.9
328.439	398.64
328.513	377.98
328.588	410.12
328.662	329.76
328.737	465.23
328.811	476.71
328.886	414.72
328.96	398.64
329.035	428.49
329.109	384.87
329.183	423.9
329.258	410.12
329.332	375.68
329.406	389.46
329.481	410.12
329.555	391.76
329.629	426.2
329.704	433.08
329.778	439.97
329.852	430.79
329.926	449.16
330.001	439.97
330.075	446.86
330.149	456.04
330.223	391.76
330.297	419.31
330.372	465.23
330.446	435.38
330.52	421.6
330.594	439.97
330.668	389.46
330.742	412.42
330.816	435.38
330.89	387.16
330.964	313.69
331.038	398.64
331.113	469.82
331.187	361.91
331.261	414.72
331.335	465.23
331.409	398.64
331.483	373.39
331.557	495.08
331.63	442.27
331.704	417.01
331.778	435.38
331.852	462.93
331.926	377.98
332	396.35
332.074	485.89
332.148	462.93
332.222	481.3
332.295	377.98
332.369	433.08
332.443	437.68
332.517	444.56
332.591	412.42
332.665	414.72
332.738	433.08
332.812	453.75
332.886	389.46
332.959	465.23
333.033	442.27
333.107	419.31
333.181	371.09
333.254	380.28
333.328	421.6
333.402	437.68
333.475	444.56
333.549	407.83
333.622	371.09
333.696	410.12
333.77	407.83
333.843	417.01
333.917	430.79
333.99	426.2
334.064	394.05
334.137	481.3
334.211	467.52
334.284	437.68
334.358	435.38
334.431	483.6
334.505	398.64
334.578	391.76
334.652	380.28
334.725	384.87
334.799	394.05
334.872	417.01
334.945	407.83
335.019	430.79
335.092	359.61
335.165	355.02
335.239	412.42
335.312	449.16
335.385	442.27
335.459	423.9
335.532	435.38
335.605	377.98
335.678	419.31
335.752	428.49
335.825	437.68
335.898	481.3
335.971	423.9
336.045	407.83
336.118	439.97
336.191	430.79
336.264	430.79
336.337	400.94
336.41	462.93
336.483	488.19
336.557	400.94
336.63	451.45
336.703	490.49
336.776	421.6
336.849	497.37
336.922	439.97
336.995	437.68
337.068	439.97
337.141	474.41
337.214	460.64
337.287	446.86
337.36	439.97
337.433	428.49
337.506	476.71
337.579	456.04
337.652	449.16
337.725	355.02
337.797	394.05
337.87	483.6
337.943	453.75
338.016	419.31
338.089	449.16
338.162	460.64
338.235	407.83
338.307	453.75
338.38	435.38
338.453	423.9
338.526	400.94
338.598	435.38
338.671	403.24
338.744	444.56
338.817	492.78
338.889	453.75
338.962	435.38
339.035	428.49
339.107	462.93
339.18	435.38
339.253	462.93
339.325	426.2
339.398	499.67
339.47	417.01
339.543	467.52
339.616	361.91
339.688	435.38
339.761	472.12
339.833	439.97
339.906	465.23
339.978	389.46
340.051	462.93
340.123	439.97
340.196	423.9
340.268	476.71
340.341	412.42
340.413	476.71
340.485	391.76
340.558	479
340.63	488.19
340.703	433.08
340.775	414.72
340.847	430.79
340.92	414.72
340.992	433.08
341.064	460.64
341.137	410.12
341.209	433.08
341.281	451.45
341.354	419.31
341.426	410.12
341.498	467.52
341.57	433.08
341.643	456.04
341.715	472.12
341.787	426.2
341.859	446.86
341.931	497.37
342.003	421.6
342.076	462.93
342.148	430.79
342.22	485.89
342.292	437.68
342.364	488.19
342.436	449.16
342.508	442.27
342.58	396.35
342.652	430.79
342.724	511.15
342.796	377.98
342.868	451.45
342.94	451.45
343.012	428.49
343.084	476.71
343.156	483.6
343.228	506.56
343.3	456.04
343.372	499.67
343.444	405.53
343.516	444.56
343.588	465.23
343.66	467.52
343.731	366.5
343.803	423.9
343.875	485.89
343.947	403.24
344.019	423.9
344.09	474.41
344.162	423.9
344.234	506.56
344.306	400.94
344.377	405.53
344.449	439.97
344.521	437.68
344.593	456.04
344.664	412.42
344.736	492.78
344.808	465.23
344.879	490.49
344.951	485.89
345.023	433.08
345.094	458.34
345.166	439.97
345.237	430.79
345.309	483.6
345.38	456.04
345.452	479
345.524	451.45
345.595	433.08
345.667	417.01
345.738	467.52
345.81	488.19
345.881	460.64
345.953	497.37
346.024	430.79
346.095	497.37
346.167	456.04
346.238	433.08
346.31	479
346.381	479
346.452	465.23
346.524	435.38
346.595	501.97
346.666	456.04
346.738	479
346.809	522.63
346.88	499.67
346.952	453.75
347.023	485.89
347.094	446.86
347.165	456.04
347.237	444.56
347.308	522.63
347.379	488.19
347.45	527.22
347.521	568.55
347.593	467.52
347.664	451.45
347.735	483.6
347.806	467.52
347.877	488.19
347.948	511.15
348.019	437.68
348.09	554.77
348.161	456.04
348.233	515.74
348.304	435.38
348.375	490.49
348.446	439.97
348.517	472.12
348.588	515.74
348.659	476.71
348.73	531.81
348.801	520.33
348.871	499.67
348.942	492.78
349.013	423.9
349.084	451.45
349.155	522.63
349.226	508.85
349.297	499.67
349.368	451.45
349.439	488.19
349.509	543.29
349.58	490.49
349.651	573.14
349.722	515.74
349.793	557.07
349.863	524.93
349.934	439.97
350.005	513.45
350.076	488.19
350.146	499.67
350.217	515.74
350.288	520.33
350.358	584.62
350.429	465.23
350.5	508.85
350.57	492.78
350.641	545.59
350.711	508.85
350.782	518.04
350.853	508.85
350.923	559.37
350.994	554.77
351.064	527.22
351.135	582.33
351.205	527.22
351.276	570.85
351.346	623.65
351.417	637.43
351.487	550.18
351.558	582.33
351.628	616.77
351.699	639.73
351.769	550.18
351.84	694.83
351.91	669.57
351.98	593.81
352.051	605.29
352.121	589.21
352.191	651.21
352.262	662.69
352.332	697.13
352.402	699.42
352.473	704.01
352.543	717.79
352.613	791.26
352.683	768.3
352.754	763.71
352.824	802.74
352.894	805.04
352.964	855.55
353.035	816.52
353.105	906.06
353.175	912.95
353.245	912.95
353.315	942.8
353.385	988.72
353.455	1078.26
353.526	1069.08
353.596	1124.18
353.666	1055.3
353.736	1170.1
353.806	1257.35
353.876	1238.98
353.946	1340.01
354.016	1255.06
354.086	1330.82
354.156	1397.41
354.226	1415.78
354.296	1581.09
354.366	1482.36
354.436	1535.17
354.506	1691.3
354.576	1741.81
354.645	1764.77
354.715	1849.72
354.785	1943.86
354.855	1976
354.925	2111.47
354.995	2095.4
355.065	2175.76
355.134	2368.62
355.204	2338.77
355.274	2398.47
355.344	2559.19
355.414	2591.33
355.483	2678.58
355.553	2814.05
355.623	2921.96
355.693	3075.79
355.762	3165.34
355.832	3323.76
355.902	3411.01
355.971	3427.08
356.041	3684.23
356.111	3838.07
356.18	3950.57
356.25	4026.34
356.319	4170.99
356.389	4207.72
356.459	4506.21
356.528	4497.02
356.598	4774.84
356.667	4914.9
356.737	5112.35
356.806	5123.83
356.876	5541.71
356.945	5635.84
357.015	5727.68
357.084	5977.95
357.154	6072.08
357.223	6303.98
357.292	6464.7
357.362	6703.49
357.431	7022.63
357.501	7243.05
357.57	7511.68
357.639	7693.07
357.709	7872.16
357.778	8287.73
357.847	8356.61
357.917	8753.82
357.986	8760.71
358.055	9272.72
358.124	9421.96
358.194	9906.42
358.263	10131.43
358.332	10315.11
358.401	10675.58
358.471	11141.67
358.54	11143.97
358.609	11633.02
358.678	11715.68
358.747	12269.01
358.816	12464.17
358.886	12746.58
358.955	13150.68
359.024	13577.74
359.093	13694.84
359.162	14328.53
359.231	14645.38
359.3	14930.09
359.369	15212.5
359.438	15724.51
359.507	16197.49
359.576	16580.92
359.645	16805.93
359.714	17692.19
359.783	17703.67
359.852	18376.4
359.921	18486.61
359.99	19021.58
360.059	19418.79
360.128	20231.57
360.197	20330.3
360.266	21248.71
360.334	21313
360.403	22072.97
360.472	22529.88
360.541	22541.36
360.61	23253.12
360.679	23776.61
360.747	24336.84
360.816	24600.88
360.885	25498.62
360.954	25960.12
361.022	26589.23
361.091	26901.48
361.16	27459.41
361.228	27909.43
361.297	28515.58
361.366	28958.71
361.434	29468.42
361.503	29698.02
361.572	30763.37
361.64	31181.24
361.709	31663.41
361.778	32326.95
361.846	32726.46
361.915	33153.52
361.983	33941.05
362.052	34595.41
362.12	35474.78
362.189	35513.81
362.257	36466.66
362.326	37143.98
362.394	37743.24
362.463	37832.78
362.531	38055.5
362.6	38530.77
362.668	39660.41
362.737	39692.55
362.805	40711.98
362.873	41217.1
362.942	41928.87
363.01	42406.44
363.079	42785.28
363.147	43418.98
363.215	44250.13
363.284	44601.42
363.352	45051.44
363.42	45336.14
363.488	46061.68
363.557	46367.05
363.625	46722.93
363.693	47402.55
363.761	48054.62
363.83	48518.41
363.898	48725.05
363.966	49335.79
364.034	49978.67
364.102	49941.94
364.171	50173.84
364.239	50920.04
364.307	51546.85
364.375	51638.69
364.443	51776.45
364.511	52180.55
364.579	52545.61
364.647	53092.06
364.715	53454.83
364.783	53725.76
364.851	53881.89
364.919	54612.02
364.987	54637.28
365.055	55066.63
365.123	55261.79
365.191	55326.08
365.259	55369.7
365.327	55799.06
365.395	56088.36
365.463	56414.39
365.531	56391.43
365.599	56405.21
365.667	56848.33
365.735	56974.62
365.802	57064.16
365.87	57433.82
365.938	57381.01
366.006	57713.93
366.074	57766.74
366.142	57808.07
366.209	57775.92
366.277	57672.6
366.345	57925.16
366.413	58173.13
366.48	58519.83
366.548	58338.45
366.616	58524.42
366.683	58678.25
366.751	58834.38
366.819	58829.79
366.886	58788.46
366.954	58873.42
367.022	58673.66
367.089	58884.9
367.157	59103.02
367.224	58894.08
367.292	59006.58
367.36	58919.34
367.427	59001.99
367.495	59194.86
367.562	58937.7
367.63	59096.13
367.697	58942.3
367.765	59231.59
367.832	58965.26
367.9	59199.45
367.967	58937.7
368.034	59082.35
368.102	58873.42
368.169	58914.74
368.237	59073.17
368.304	58960.66
368.371	58816.02
368.439	58900.97
368.506	58825.2
368.573	58903.26
368.641	58760.91
368.708	58623.15
368.775	58432.58
368.843	58448.65
368.91	58510.65
368.977	58260.38
369.044	58577.23
369.112	58336.15
369.179	58214.46
369.246	58145.58
369.313	58143.28
369.38	57778.22
369.448	57934.35
369.515	57890.72
369.582	57507.29
369.649	57534.84
369.716	57429.23
369.783	57488.92
369.85	57463.67
369.917	57238.66
369.984	56866.7
370.052	57075.64
370.119	57054.98
370.186	57025.13
370.253	56582
370.32	56630.21
370.387	56609.55
370.454	56177.9
370.521	56134.28
370.587	55923.04
370.654	55766.91
370.721	55812.83
370.788	55583.23
370.855	55422.51
370.922	55362.82
370.989	55385.78
371.056	55431.7
371.123	54853.1
371.189	54933.46
371.256	54655.65
371.323	54400.79
371.39	53941.59
371.457	53794.64
371.523	53969.14
371.59	53847.45
371.657	53679.84
371.724	53675.25
371.79	53170.13
371.857	53257.38
371.924	53287.22
371.991	52763.73
372.057	52844.09
372.124	52788.99
372.191	52451.48
372.257	52396.37
372.324	52162.18
372.39	51551.44
372.457	51638.69
372.524	51533.07
372.59	51207.04
372.657	50961.37
372.723	50729.47
372.79	50226.64
372.856	50091.18
372.923	49863.87
372.989	50146.28
373.056	49560.8
373.122	49250.84
373.189	49319.72
373.255	49110.78
373.322	48961.54
373.388	48357.69
373.454	48394.43
373.521	47960.48
373.587	48178.6
373.654	47822.72
373.72	47388.78
373.786	46787.22
373.853	46766.56
373.919	46725.23
373.985	46247.66
374.052	45907.85
374.118	45767.79
374.184	45760.9
374.25	45134.09
374.317	45028.48
374.383	44514.17
374.449	43999.87
374.515	44050.38
374.581	43393.72
374.648	43056.21
374.714	43184.78
374.78	42831.2
374.846	42884
374.912	42523.53
374.978	42165.35
375.044	41692.38
375.11	41708.45
375.177	41263.02
375.243	41086.23
375.309	40677.54
375.375	40468.6
375.441	39968.07
375.507	39956.59
375.573	39655.82
375.639	39364.22
375.705	39123.14
375.771	38661.64
375.837	38604.24
375.903	37789.16
375.968	37605.48
376.034	37279.45
376.1	36854.68
376.166	36620.49
376.232	36445.99
376.298	36234.76
376.364	35745.71
376.43	35493.15
376.495	35229.11
376.561	34746.95
376.627	34678.07
376.693	34441.58
376.759	33598.94
376.824	33454.29
376.89	33635.68
376.956	32995.09
377.022	32985.91
377.087	32685.13
377.153	32166.23
377.219	32147.86
377.284	32092.76
377.35	31532.53
377.416	31530.24
377.481	30852.92
377.547	30641.68
377.613	30297.28
377.678	30136.56
377.744	29349.03
377.809	29236.52
377.875	29222.75
377.94	29082.69
378.006	28437.51
378.071	28318.12
378.137	28267.61
378.202	27480.08
378.268	27950.76
378.333	27381.35
378.399	26935.92
378.464	26442.28
378.53	26391.77
378.595	26155.28
378.661	25953.23
378.726	25574.39
378.791	25165.7
378.857	25498.62
378.922	25064.68
378.987	24936.1
379.053	24649.1
379.118	24734.05
379.183	24245
379.249	23847.79
379.314	23728.4
379.379	23659.52
379.444	23292.16
379.51	23076.33
379.575	23083.22
379.64	22945.46
379.705	22309.46
379.771	22258.95
379.836	21544.89
379.901	21815.82
379.966	21535.71
380.031	21014.51
380.096	21333.66
380.161	21097.17
380.227	20690.78
380.292	20440.51
380.357	20569.09
380.422	19939.98
380.487	19898.65
380.552	19774.67
380.617	19809.11
380.682	19565.73
380.747	19485.37
380.812	19175.41
380.877	18934.33
380.942	18746.06
381.007	18316.7
381.072	18371.81
381.137	18126.13
381.202	18321.3
381.266	17767.96
381.331	17756.48
381.396	17572.8
381.461	17485.55
381.526	17363.86
381.591	17072.27
381.656	17035.53
381.72	16617.66
381.785	16445.46
381.85	16208.97
381.915	16358.21
381.979	16133.2
382.044	15887.52
382.109	15795.68
382.174	15646.44
382.238	15696.96
382.303	15263.01
382.368	15545.42
382.432	14948.46
382.497	15116.07
382.562	14902.54
382.626	14994.38
382.691	14693.6
382.756	14537.47
382.82	14388.23
382.885	14119.6
382.949	14069.09
383.014	13828
383.078	13667.28
383.143	13518.04
383.208	13623.66
383.272	13152.98
383.337	13201.19
383.401	12886.64
383.465	12803.98
383.53	12673.11
383.594	12721.33
383.659	12535.35
383.723	12601.94
383.788	12197.84
383.852	12037.12
383.916	12151.92
383.981	12050.89
384.045	11858.03
384.109	11674.35
384.174	11593.99
384.238	11417.19
384.302	11394.23
384.367	11306.99
384.431	11306.99
384.495	11052.13
384.56	11022.28
384.624	10680.18
384.688	10838.6
384.752	10475.83
384.816	10491.9
384.881	10241.64
384.945	10319.7
385.009	10113.06
385.073	10138.32
385.137	9725.04
385.201	10048.77
385.265	9555.13
385.33	9681.41
385.394	9754.88
385.458	9502.32
385.522	9286.5
385.586	9343.9
385.65	8992.61
385.714	9052.3
385.778	9040.82
385.842	9093.63
385.906	8870.92
385.97	8570.14
386.034	8613.77
386.098	8554.07
386.162	8501.26
386.226	8244.11
386.29	8404.83
386.354	8138.49
386.417	8149.97
386.481	8044.36
386.545	8003.03
386.609	7771.13
386.673	7794.09
386.737	7502.5
386.8	7642.55
386.864	7539.23
386.928	7174.17
386.992	7332.59
387.056	7224.68
387.119	7215.5
387.183	7091.51
387.247	7137.43
387.31	6799.92
387.374	7038.7
387.438	6758.59
387.502	6774.66
387.565	6545.06
387.629	6662.16
387.692	6698.89
387.756	6526.69
387.82	6584.09
387.883	6437.15
387.947	6101.93
388.01	6313.17
388.074	6285.61
388.138	6150.15
388.201	5906.77
388.265	5991.72
388.328	5739.16
388.392	5716.2
388.455	5743.75
388.519	5801.16
388.582	5651.91
388.645	5544
388.709	5527.93
388.772	5514.15
388.836	5555.48
388.899	5518.75
388.962	5335.07
389.026	5167.46
389.089	5234.04
389.153	5181.23
389.216	5048.06
389.279	5002.14
389.343	5013.62
389.406	5057.25
389.469	4846.02
389.532	4848.31
389.596	4825.35
389.659	4602.64
389.722	4678.41
389.785	4696.77
389.848	4501.61
389.912	4568.2
389.975	4400.59
390.038	4490.13
390.101	4430.44
390.164	4373.04
390.227	4182.47
390.291	4235.28
390.354	4184.76
390.417	4118.18
390.48	4152.62
390.543	4131.96
390.606	4014.86
390.669	4035.52
390.732	3911.54
390.795	4024.04
390.858	3987.31
390.921	3821.99
390.984	3792.15
391.047	3762.3
391.11	3661.27
391.173	3757.71
391.236	3684.23
391.299	3564.84
391.362	3548.77
391.424	3553.36
391.487	3537.29
391.55	3518.92
391.613	3532.7
391.676	3475.3
391.739	3321.46
391.802	3362.79
391.864	3243.4
391.927	3282.43
391.99	3365.09
392.053	3374.27
392.115	3261.77
392.178	3169.93
392.241	3208.96
392.304	3075.79
392.366	3149.26
392.429	3146.97
392.492	3000.02
392.554	2938.03
392.617	2981.66
392.68	2981.66
392.742	2795.68
392.805	2827.82
392.867	2940.33
392.93	2850.78
392.992	2850.78
393.055	2878.33
393.118	2724.5
393.18	2687.77
393.243	2667.1
393.305	2634.96
393.368	2694.65
393.43	2621.18
393.493	2685.47
393.555	2685.47
393.618	2508.68
393.68	2497.2
393.742	2552.3
393.805	2598.22
393.867	2373.21
393.93	2426.02
393.992	2527.05
394.054	2453.57
394.117	2430.61
394.179	2364.03
394.241	2375.51
394.304	2334.18
394.366	2256.12
394.428	2226.27
394.49	2341.07
394.553	2212.49
394.615	2205.6
394.677	2244.64
394.739	2221.68
394.802	2122.95
394.864	2237.75
394.926	2132.13
394.988	2088.51
395.05	2090.8
395.112	2081.62
395.174	2028.81
395.237	2017.33
395.299	2065.55
395.361	2019.63
395.423	2051.77
395.485	2035.7
395.547	1868.09
395.609	1971.41
395.671	1934.68
395.733	1936.97
395.795	1771.66
395.857	1881.87
395.919	1895.64
395.981	1895.64
396.043	1787.73
396.105	1783.14
396.167	1829.06
396.229	1725.74
396.291	1716.55
396.352	1812.99
396.414	1773.95
396.476	1649.97
396.538	1677.52
396.6	1590.27
396.662	1656.86
396.724	1636.19
396.785	1689
396.847	1638.49
396.909	1695.89
396.971	1652.27
397.032	1571.91
397.094	1640.79
397.156	1583.39
397.218	1519.1
397.279	1466.29
397.341	1548.95
397.403	1482.36
397.464	1482.36
397.526	1463.99
397.588	1436.44
397.649	1459.4
397.711	1445.63
397.772	1450.22
397.834	1427.26
397.896	1477.77
397.957	1360.67
398.019	1404.3
398.08	1328.53
398.142	1431.85
398.203	1379.04
398.265	1346.9
398.326	1342.3
398.388	1298.68
398.449	1323.94
398.511	1319.34
398.572	1353.78
398.633	1314.75
398.695	1257.35
398.756	1222.91
398.818	1220.62
398.879	1165.51
398.94	1222.91
399.002	1135.66
399.063	1250.46
399.124	1209.14
399.186	1172.4
399.247	1218.32
399.308	1156.33
399.369	1154.03
399.431	1197.66
399.492	1174.7
399.553	1137.96
399.614	1066.78
399.676	1147.14
399.737	1142.55
399.798	1172.4
399.859	1163.22
399.92	1085.15
399.981	1057.6
400.042	1115
400.104	1170.1
400.165	1082.86
400.226	1085.15
400.287	1030.05
400.348	986.42
400.409	1147.14
400.47	1126.48
400.531	1030.05
400.592	1016.27
400.653	995.61
400.714	974.94
400.775	1027.75
400.836	993.31
400.897	1050.71
400.958	968.06
401.019	919.84
401.08	979.54
401.141	915.25
401.201	912.95
401.262	940.5
401.323	951.98
401.384	1009.38
401.445	922.13
401.506	834.89
401.567	894.58
401.627	867.03
401.688	951.98
401.749	954.28
401.81	887.69
401.87	857.85
401.931	876.21
401.992	889.99
402.053	864.73
402.113	894.58
402.174	931.32
402.235	857.85
402.295	841.77
402.356	855.55
402.417	908.36
402.477	899.17
402.538	903.77
402.598	825.7
402.659	901.47
402.719	768.3
402.78	846.37
402.841	784.37
402.901	823.41
402.962	809.63
403.022	784.37
403.083	805.04
403.143	779.78
403.204	807.33
403.264	814.22
403.324	894.58
403.385	784.37
403.445	846.37
403.506	713.2
403.566	729.27
403.627	798.15
403.687	857.85
403.747	713.2
403.808	729.27
403.868	811.93
403.928	726.97
403.989	779.78
404.049	770.6
404.109	779.78
404.169	701.72
404.23	745.34
404.29	736.16
404.35	726.97
404.41	708.61
404.47	733.86
404.531	676.46
404.591	671.87
404.651	667.28
404.711	722.38
404.771	759.12
404.831	752.23
404.892	681.05
404.952	697.13
405.012	743.05
405.072	743.05
405.132	667.28
405.192	754.53
405.252	667.28
405.312	749.93
405.372	722.38
405.432	632.84
405.492	694.83
405.552	669.57
405.612	642.02
405.672	664.98
405.732	625.95
405.792	669.57
405.852	630.54
405.912	662.69
405.971	582.33
406.031	625.95
406.091	722.38
406.151	619.06
406.211	722.38
406.271	609.88
406.33	625.95
406.39	660.39
406.45	628.25
406.51	586.92
406.57	637.43
406.629	644.32
406.689	630.54
406.749	646.61
406.808	598.4
406.868	628.25
406.928	616.77
406.988	596.1
407.047	559.37
407.107	653.5
407.166	559.37
407.226	607.58
407.286	602.99
407.345	612.17
407.405	602.99
407.464	589.21
407.524	566.25
407.584	577.73
407.643	563.96
407.703	591.51
407.762	561.66
407.822	531.81
407.881	612.17
407.941	619.06
408	600.69
408.059	543.29
408.119	598.4
408.178	605.29
408.238	573.14
408.297	632.84
408.356	538.7
408.416	524.93
408.475	598.4
408.535	605.29
408.594	557.07
408.653	582.33
408.712	501.97
408.772	538.7
408.831	561.66
408.89	609.88
408.95	545.59
409.009	531.81
409.068	586.92
409.127	602.99
409.186	531.81
409.246	499.67
409.305	575.44
409.364	492.78
409.423	563.96
409.482	593.81
409.541	545.59
409.6	550.18
409.66	563.96
409.719	545.59
409.778	568.55
409.837	518.04
409.896	529.52
409.955	508.85
410.014	472.12
410.073	488.19
410.132	527.22
410.191	513.45
410.25	458.34
410.309	531.81
410.368	547.89
410.427	504.26
410.486	552.48
410.545	520.33
410.603	534.11
410.662	490.49
410.721	506.56
410.78	479
410.839	485.89
410.898	501.97
410.957	531.81
411.015	561.66
411.074	534.11
411.133	460.64
411.192	504.26
411.25	529.52
411.309	451.45
411.368	557.07
411.427	524.93
411.485	456.04
411.544	541
411.603	511.15
411.661	472.12
411.72	469.82
411.779	467.52
411.837	433.08
411.896	495.08
411.955	444.56
412.013	437.68
412.072	497.37
412.13	538.7
412.189	483.6
412.247	467.52
412.306	394.05
412.364	520.33
412.423	513.45
412.481	421.6
412.54	492.78
412.598	423.9
412.657	518.04
412.715	511.15
412.774	474.41
412.832	444.56
412.891	428.49
412.949	449.16
413.007	449.16
413.066	490.49
413.124	444.56
413.182	449.16
413.241	456.04
413.299	437.68
413.357	403.24
413.416	439.97
413.474	506.56
413.532	449.16
413.59	508.85
413.649	396.35
413.707	479
413.765	451.45
413.823	387.16
413.881	458.34
413.94	474.41
413.998	488.19
414.056	465.23
414.114	479
414.172	479
414.23	472.12
414.288	474.41
414.347	430.79
414.405	456.04
414.463	414.72
414.521	485.89
414.579	476.71
414.637	414.72
414.695	554.77
414.753	456.04
414.811	442.27
414.869	428.49
414.927	497.37
414.985	458.34
415.043	481.3
415.101	451.45
415.158	458.34
415.216	446.86
415.274	414.72
415.332	417.01
415.39	419.31
415.448	451.45
415.506	495.08
415.563	419.31
415.621	394.05
415.679	476.71
415.737	373.39
415.795	497.37
415.852	435.38
415.91	414.72
415.968	428.49
416.026	435.38
416.083	442.27
416.141	430.79
416.199	410.12
416.256	439.97
416.314	348.13
416.372	405.53
416.429	387.16
416.487	412.42
416.544	414.72
416.602	400.94
416.66	368.8
416.717	396.35
416.775	391.76
416.832	451.45
416.89	458.34
416.947	460.64
417.005	460.64
417.062	421.6
417.12	373.39
417.177	474.41
417.235	465.23
417.292	442.27
417.35	387.16
417.407	389.46
417.464	458.34
417.522	458.34
417.579	433.08
417.637	456.04
417.694	421.6
417.751	442.27
417.809	377.98
417.866	437.68
417.923	412.42
417.981	460.64
418.038	396.35
418.095	433.08
418.152	421.6
418.21	446.86
418.267	442.27
418.324	460.64
418.381	355.02
418.438	400.94
418.496	426.2
418.553	355.02
418.61	410.12
418.667	403.24
418.724	513.45
418.781	421.6
418.838	361.91
418.895	444.56
418.952	433.08
419.01	433.08
419.067	410.12
419.124	389.46
419.181	439.97
419.238	433.08
419.295	400.94
419.352	439.97
419.409	421.6
419.466	410.12
419.523	377.98
419.579	412.42
419.636	387.16
419.693	428.49
419.75	407.83
419.807	359.61
419.864	460.64
419.921	364.2
419.978	426.2
420.034	352.72
420.091	410.12
420.148	391.76
420.205	384.87
420.262	398.64
420.318	439.97
420.375	453.75
420.432	394.05
420.489	382.57
420.545	384.87
420.602	433.08
420.659	384.87
420.715	414.72
420.772	449.16
420.829	423.9
420.885	446.86
420.942	364.2
420.999	373.39
421.055	451.45
421.112	446.86
421.168	384.87
421.225	371.09
421.282	527.22
421.338	442.27
421.395	421.6
421.451	437.68
421.508	430.79
421.564	426.2
421.621	428.49
421.677	483.6
421.734	343.54
421.79	355.02
421.846	375.68
421.903	398.64
421.959	320.58
422.016	375.68
422.072	430.79
422.128	410.12
422.185	352.72
422.241	382.57
422.297	373.39
422.354	479
422.41	407.83
422.466	389.46
422.523	403.24
422.579	384.87
422.635	364.2
422.691	357.32
422.748	421.6
422.804	355.02
422.86	405.53
422.916	306.8
422.972	332.06
423.029	359.61
423.085	380.28
423.141	368.8
423.197	407.83
423.253	442.27
423.309	391.76
423.365	444.56
423.421	373.39
423.477	407.83
423.533	414.72
423.589	389.46
423.645	320.58
423.701	293.03
423.757	384.87
423.813	419.31
423.869	430.79
423.925	414.72
423.981	469.82
424.037	377.98
424.093	375.68
424.149	419.31
424.205	492.78
424.261	433.08
424.317	341.24
424.373	387.16
424.428	371.09
424.484	389.46
424.54	437.68
424.596	368.8
424.652	400.94
424.708	366.5
424.763	398.64
424.819	412.42
424.875	373.39
424.931	348.13
424.986	474.41
425.042	361.91
425.098	442.27
425.153	421.6
425.209	437.68
425.265	430.79
425.32	384.87
425.376	336.65
425.432	410.12
425.487	439.97
425.543	511.15
425.598	391.76
425.654	398.64
425.709	435.38
425.765	400.94
425.82	389.46
425.876	375.68
425.932	343.54
425.987	453.75
426.042	380.28
426.098	407.83
426.153	437.68
426.209	389.46
426.264	421.6
426.32	384.87
426.375	389.46
426.43	403.24
426.486	421.6
426.541	396.35
426.597	423.9
426.652	371.09
426.707	377.98
426.763	396.35
426.818	414.72
426.873	364.2
426.928	394.05
426.984	396.35
427.039	387.16
427.094	355.02
427.149	375.68
427.205	442.27
427.26	373.39
427.315	359.61
427.37	430.79
427.425	387.16
427.48	373.39
427.536	371.09
427.591	405.53
427.646	350.43
427.701	350.43
427.756	315.99
427.811	403.24
427.866	410.12
427.921	377.98
427.976	359.61
428.031	380.28
428.086	410.12
428.141	403.24
428.196	451.45
428.251	355.02
428.306	380.28
428.361	412.42
428.416	377.98
428.471	350.43
428.526	348.13
428.581	458.34
428.636	364.2
428.691	419.31
428.745	410.12
428.8	405.53
428.855	465.23
428.91	352.72
428.965	407.83
429.02	394.05
429.074	382.57
429.129	380.28
429.184	458.34
429.239	430.79
429.293	355.02
429.348	403.24
429.403	407.83
429.457	396.35
429.512	382.57
429.567	412.42
429.621	391.76
429.676	343.54
429.731	405.53
429.785	357.32
429.84	382.57
429.895	371.09
429.949	407.83
430.004	437.68
430.058	341.24
430.113	320.58
430.167	352.72
430.222	426.2
430.276	394.05
430.331	368.8
430.385	368.8
430.44	426.2
430.494	375.68
430.549	332.06
430.603	419.31
430.657	428.49
430.712	426.2
430.766	410.12
430.821	391.76
430.875	439.97
430.929	394.05
430.984	426.2
431.038	412.42
431.092	389.46
431.147	364.2
431.201	460.64
431.255	398.64
431.309	355.02
431.364	384.87
431.418	380.28
431.472	405.53
431.526	389.46
431.581	380.28
431.635	373.39
431.689	384.87
431.743	359.61
431.797	366.5
431.851	407.83
431.906	398.64
431.96	405.53
432.014	423.9
432.068	355.02
432.122	352.72
432.176	357.32
432.23	396.35
432.284	345.84
432.338	348.13
432.392	403.24
432.446	377.98
432.5	442.27
432.554	338.95
432.608	377.98
432.662	400.94
432.716	382.57
432.77	387.16
432.824	364.2
432.878	446.86
432.931	371.09
432.985	407.83
433.039	355.02
433.093	389.46
433.147	366.5
433.201	389.46
433.254	394.05
433.308	417.01
433.362	348.13
433.416	391.76
433.47	394.05
433.523	359.61
433.577	412.42
433.631	391.76
433.684	449.16
433.738	460.64
433.792	377.98
433.846	391.76
433.899	417.01
433.953	359.61
434.006	396.35
434.06	377.98
434.114	352.72
434.167	352.72
434.221	352.72
