Data from QEPB00791_17-07-21-669.txt Node
Date: Mon Jan 20 17:07:21 MST 2020
User: ecestudent
Spectrometer: QEPB0079
Trigger mode: 0
Integration Time (sec): 8.000000E-3
Scans to average: 1
Electric dark correction enabled: true
Nonlinearity correction enabled: false
Boxcar width: 0
XAxis mode: Wavelengths
Number of Pixels in Spectrum: 1044
>>>>>Begin Spectral Data<<<<<
198.864	31.75
199.671	27.75
200.477	30.75
201.284	30.75
202.091	32.75
202.897	30.75
203.704	34.75
204.51	32.75
205.317	30.75
206.123	37.75
206.929	30.75
207.736	34.75
208.542	34.75
209.348	31.75
210.154	33.75
210.96	31.75
211.765	35.75
212.571	31.75
213.377	35.75
214.182	30.75
214.988	37.75
215.793	34.75
216.599	33.75
217.404	34.75
218.209	32.75
219.015	38.75
219.82	34.75
220.625	35.75
221.43	37.75
222.235	35.75
223.039	38.75
223.844	39.75
224.649	37.75
225.453	34.75
226.258	34.75
227.062	38.75
227.867	37.75
228.671	38.75
229.475	36.75
230.28	38.75
231.084	36.75
231.888	37.75
232.692	40.75
233.496	36.75
234.299	37.75
235.103	38.75
235.907	35.75
236.71	42.75
237.514	41.75
238.317	41.75
239.121	42.75
239.924	41.75
240.727	43.75
241.531	38.75
242.334	44.75
243.137	44.75
243.94	48.75
244.743	45.75
245.545	44.75
246.348	42.75
247.151	45.75
247.954	47.75
248.756	49.75
249.559	44.75
250.361	47.75
251.163	46.75
251.965	50.75
252.768	47.75
253.57	49.75
254.372	51.75
255.174	51.75
255.976	51.75
256.777	53.75
257.579	55.75
258.381	50.75
259.183	52.75
259.984	55.75
260.786	50.75
261.587	57.75
262.388	54.75
263.189	58.75
263.991	58.75
264.792	62.75
265.593	60.75
266.394	61.75
267.195	64.75
267.995	58.75
268.796	65.75
269.597	63.75
270.397	67.75
271.198	65.75
271.998	64.75
272.799	69.75
273.599	67.75
274.399	72.75
275.2	72.75
276	73.75
276.8	78.75
277.6	74.75
278.4	83.75
279.199	80.75
279.999	78.75
280.799	84.75
281.598	83.75
282.398	89.75
283.197	92.75
283.997	93.75
284.796	91.75
285.595	99.75
286.395	98.75
287.194	107.75
287.993	109.75
288.792	110.75
289.59	112.75
290.389	118.75
291.188	122.75
291.987	131.75
292.785	134.75
293.584	143.75
294.382	141.75
295.181	151.75
295.979	165.75
296.777	175.75
297.575	180.75
298.373	194.75
299.171	210.75
299.969	229.75
300.767	241.75
301.565	257.75
302.363	266.75
303.16	285.75
303.958	292.75
304.756	314.75
305.553	330.75
306.35	347.75
307.148	367.75
307.945	398.75
308.742	429.75
309.539	478.75
310.336	510.75
311.133	536.75
311.93	560.75
312.727	624.75
313.524	683.75
314.32	748.75
315.117	808.75
315.913	830.75
316.71	831.75
317.506	853.75
318.302	862.75
319.099	880.75
319.895	900.75
320.691	910.75
321.487	928.75
322.283	953.75
323.079	971.75
323.874	999.75
324.67	1017.75
325.466	1048.75
326.261	1071.75
327.057	1082.75
327.852	1142.75
328.648	1201.75
329.443	1282.75
330.238	1385.75
331.033	1513.75
331.828	1700.75
332.623	1900.75
333.418	2081.75
334.213	2196.75
335.008	2193.75
335.803	2173.75
336.597	2123.75
337.392	2104.75
338.186	2131.75
338.981	2204.75
339.775	2281.75
340.57	2335.75
341.364	2408.75
342.158	2528.75
342.952	2651.75
343.746	2757.75
344.54	2857.75
345.334	2933.75
346.127	3019.75
346.921	3067.75
347.715	3097.75
348.508	3097.75
349.302	3119.75
350.095	3150.75
350.889	3178.75
351.682	3242.75
352.475	3321.75
353.268	3424.75
354.061	3522.75
354.854	3629.75
355.647	3696.75
356.44	3858.75
357.233	4038.75
358.025	4310.75
358.818	4688.75
359.611	5226.75
360.403	6122.75
361.195	7598.75
361.988	9323.75
362.78	10880.75
363.572	11799.75
364.364	12402.75
365.156	13025.75
365.948	13746.75
366.74	14239.75
367.532	14146.75
368.324	13674.75
369.116	12949.75
369.907	12159.75
370.699	11468.75
371.49	10856.75
372.282	10319.75
373.073	9888.75
373.864	9501.75
374.655	9149.75
375.446	8925.75
376.237	8700.75
377.028	8581.75
377.819	8494.75
378.61	8405.75
379.401	8381.75
380.192	8350.75
380.982	8371.75
381.773	8384.75
382.563	8528.75
383.354	8577.75
384.144	8664.75
384.934	8831.75
385.724	8936.75
386.514	9022.75
387.304	9076.75
388.094	9110.75
388.884	9132.75
389.674	9166.75
390.464	9265.75
391.253	9381.75
392.043	9504.75
392.832	9642.75
393.622	9812.75
394.411	9963.75
395.201	10147.75
395.99	10364.75
396.779	10542.75
397.568	10782.75
398.357	11054.75
399.146	11456.75
399.935	11999.75
400.724	13092.75
401.512	15273.75
402.301	19236.75
403.09	24453.75
403.878	29499.75
404.667	32508.75
405.455	32683.75
406.243	30778.75
407.031	27903.75
407.82	25056.75
408.608	22801.75
409.396	21145.75
410.184	20287.75
410.971	19664.75
411.759	19155.75
412.547	18584.75
413.334	17811.75
414.122	17119.75
414.91	16635.75
415.697	16370.75
416.484	16293.75
417.272	16269.75
418.059	16395.75
418.846	16641.75
419.633	16935.75
420.42	17256.75
421.207	17659.75
421.994	18124.75
422.78	18573.75
423.567	19007.75
424.354	19404.75
425.14	19833.75
425.927	20443.75
426.713	21054.75
427.499	22028.75
428.286	23270.75
429.072	24595.75
429.858	25534.75
430.644	26128.75
431.43	26685.75
432.216	27737.75
433.002	30481.75
433.787	34344.75
434.573	38779.75
435.359	43644.75
436.144	47613.75
436.93	49737.75
437.715	49122.75
438.5	46123.75
439.286	41736.75
440.071	37621.75
440.856	33958.75
441.641	30998.75
442.426	28615.75
443.211	26915.75
443.996	25624.75
444.78	24713.75
445.565	23838.75
446.35	23149.75
447.134	22310.75
447.919	21518.75
448.703	20622.75
449.487	19873.75
450.271	19079.75
451.056	18349.75
451.84	17714.75
452.624	17278.75
453.408	17001.75
454.191	16833.75
454.975	16713.75
455.759	16704.75
456.543	16564.75
457.326	16271.75
458.11	15818.75
458.893	15343.75
459.676	14846.75
460.46	14395.75
461.243	14105.75
462.026	13836.75
462.809	13728.75
463.592	13679.75
464.375	13701.75
465.158	13744.75
465.941	13868.75
466.723	14010.75
467.506	14251.75
468.288	14475.75
469.071	14677.75
469.853	14946.75
470.636	15155.75
471.418	15447.75
472.2	15622.75
472.982	15661.75
473.764	15505.75
474.546	15261.75
475.328	15004.75
476.11	14723.75
476.892	14607.75
477.673	14405.75
478.455	14408.75
479.236	14463.75
480.018	14627.75
480.799	14842.75
481.581	15220.75
482.362	15659.75
483.143	16172.75
483.924	16722.75
484.705	17098.75
485.486	17261.75
486.267	17160.75
487.048	16997.75
487.828	16665.75
488.609	16367.75
489.39	15960.75
490.17	15424.75
490.951	14697.75
491.731	14025.75
492.511	13253.75
493.292	12708.75
494.072	12432.75
494.852	12214.75
495.632	12037.75
496.412	11745.75
497.192	11466.75
497.971	11229.75
498.751	11122.75
499.531	11004.75
500.31	10870.75
501.09	10801.75
501.869	10663.75
502.648	10590.75
503.428	10520.75
504.207	10430.75
504.986	10394.75
505.765	10408.75
506.544	10416.75
507.323	10412.75
508.102	10429.75
508.881	10426.75
509.659	10479.75
510.438	10493.75
511.216	10532.75
511.995	10560.75
512.773	10537.75
513.552	10593.75
514.33	10668.75
515.108	10685.75
515.886	10697.75
516.664	10736.75
517.442	10723.75
518.22	10752.75
518.998	10756.75
519.775	10698.75
520.553	10738.75
521.331	10775.75
522.108	10867.75
522.886	10898.75
523.663	10947.75
524.44	11076.75
525.218	11180.75
525.995	11328.75
526.772	11489.75
527.549	11791.75
528.326	12007.75
529.103	12535.75
529.879	13173.75
530.656	14047.75
531.433	14861.75
532.209	15640.75
532.986	16230.75
533.762	16921.75
534.539	17673.75
535.315	18692.75
536.091	19875.75
536.867	21266.75
537.643	22613.75
538.419	23700.75
539.195	24681.75
539.971	25522.75
540.747	26599.75
541.522	28320.75
542.298	32127.75
543.074	41159.75
543.849	55693.75
544.624	63138.75
545.4	63138.75
546.175	63138.75
546.95	63138.75
547.725	63138.75
548.5	63138.75
549.275	63138.75
550.05	63138.75
550.825	63138.75
551.6	63138.75
552.374	61094.75
553.149	54022.75
553.923	49133.75
554.698	44839.75
555.472	41346.75
556.247	38250.75
557.021	35886.75
557.795	33826.75
558.569	32319.75
559.343	31206.75
560.117	30123.75
560.891	29340.75
561.665	28301.75
562.438	27313.75
563.212	26292.75
563.985	25223.75
564.759	24397.75
565.532	23825.75
566.306	23847.75
567.079	24315.75
567.852	25467.75
568.625	27375.75
569.398	30250.75
570.171	34251.75
570.944	39247.75
571.717	44998.75
572.49	51305.75
573.262	57076.75
574.035	62266.75
574.808	63138.75
575.58	63138.75
576.352	63138.75
577.125	63138.75
577.897	63138.75
578.669	60998.75
579.441	56993.75
580.213	53410.75
580.985	49805.75
581.757	46529.75
582.529	43436.75
583.301	40485.75
584.072	37878.75
584.844	35484.75
585.615	33230.75
586.387	31427.75
587.158	29819.75
587.929	28399.75
588.701	27147.75
589.472	25900.75
590.243	24894.75
591.014	23961.75
591.785	23302.75
592.556	22811.75
593.326	22231.75
594.097	21597.75
594.868	21001.75
595.638	20137.75
596.409	19430.75
597.179	18660.75
597.949	17988.75
598.72	17506.75
599.49	17064.75
600.26	16652.75
601.03	16274.75
601.8	15914.75
602.57	15623.75
603.34	15379.75
604.109	14999.75
604.879	14813.75
605.649	14626.75
606.418	14334.75
607.188	14181.75
607.957	14015.75
608.726	13820.75
609.496	13720.75
610.265	13614.75
611.034	13365.75
611.803	13252.75
612.572	13062.75
613.341	12898.75
614.109	12803.75
614.878	12624.75
615.647	12538.75
616.415	12473.75
617.184	12319.75
617.952	12251.75
618.721	12201.75
619.489	12042.75
620.257	12019.75
621.025	12004.75
621.793	11910.75
622.561	11883.75
623.329	11901.75
624.097	11844.75
624.865	11736.75
625.632	11790.75
626.4	11701.75
627.168	11673.75
627.935	11660.75
628.702	11585.75
629.47	11502.75
630.237	11525.75
631.004	11471.75
631.771	11346.75
632.538	11371.75
633.305	11323.75
634.072	11257.75
634.839	11234.75
635.606	11217.75
636.372	11188.75
637.139	11159.75
637.905	11137.75
638.672	11082.75
639.438	11048.75
640.204	11002.75
640.971	10988.75
641.737	10942.75
642.503	10886.75
643.269	10854.75
644.035	10814.75
644.8	10858.75
645.566	10796.75
646.332	10696.75
647.097	10707.75
647.863	10657.75
648.629	10641.75
649.394	10628.75
650.159	10566.75
650.924	10557.75
651.69	10486.75
652.455	10505.75
653.22	10439.75
653.985	10445.75
654.75	10466.75
655.514	10421.75
656.279	10380.75
657.044	10374.75
657.808	10330.75
658.573	10313.75
659.337	10360.75
660.102	10347.75
660.866	10308.75
661.63	10290.75
662.394	10280.75
663.158	10291.75
663.922	10247.75
664.686	10259.75
665.45	10311.75
666.214	10238.75
666.978	10232.75
667.741	10245.75
668.505	10188.75
669.268	10191.75
670.032	10171.75
670.795	10192.75
671.558	10142.75
672.321	10148.75
673.084	10069.75
673.847	10085.75
674.61	10015.75
675.373	10001.75
676.136	9995.75
676.899	9968.75
677.662	9970.75
678.424	10001.75
679.187	10005.75
679.949	9955.75
680.711	9952.75
681.474	9903.75
682.236	9902.75
682.998	9937.75
683.76	9933.75
684.522	9919.75
685.284	9959.75
686.046	9933.75
686.808	9895.75
687.569	9892.75
688.331	9883.75
689.092	9942.75
689.854	9941.75
690.615	10017.75
691.377	10021.75
692.138	10094.75
692.899	10211.75
693.66	10196.75
694.421	10156.75
695.182	10151.75
695.943	10127.75
696.704	10066.75
697.465	9954.75
698.225	9933.75
698.986	9906.75
699.746	9853.75
700.507	9776.75
701.267	9732.75
702.027	9662.75
702.788	9653.75
703.548	9581.75
704.308	9561.75
705.068	9510.75
705.828	9482.75
706.588	9413.75
707.347	9386.75
708.107	9383.75
708.867	9372.75
709.626	9324.75
710.386	9310.75
711.145	9271.75
711.904	9236.75
712.664	9110.75
713.423	9028.75
714.182	9011.75
714.941	8920.75
715.7	8827.75
716.459	8733.75
717.218	8717.75
717.976	8622.75
718.735	8548.75
719.494	8438.75
720.252	8428.75
721.011	8354.75
721.769	8261.75
722.527	8212.75
723.285	8223.75
724.044	8132.75
724.802	8071.75
725.56	8042.75
726.317	7938.75
727.075	7867.75
727.833	7718.75
728.591	7588.75
729.348	7467.75
730.106	7293.75
730.863	7120.75
731.621	6950.75
732.378	6849.75
733.135	6716.75
733.893	6532.75
734.65	6370.75
735.407	6296.75
736.164	6203.75
736.92	6078.75
737.677	5960.75
738.434	5854.75
739.191	5814.75
739.947	5704.75
740.704	5600.75
741.46	5522.75
742.216	5466.75
742.973	5419.75
743.729	5293.75
744.485	5234.75
745.241	5181.75
745.997	5135.75
746.753	5056.75
747.509	4941.75
748.265	4889.75
749.02	4866.75
749.776	4803.75
750.531	4710.75
751.287	4658.75
752.042	4604.75
752.798	4556.75
753.553	4466.75
754.308	4369.75
755.063	4338.75
755.818	4314.75
756.573	4244.75
757.328	4186.75
758.083	4098.75
758.837	4060.75
759.592	4018.75
760.347	3939.75
761.101	3844.75
761.855	3806.75
762.61	3748.75
763.364	3691.75
764.118	3615.75
764.872	3530.75
765.626	3504.75
766.38	3464.75
767.134	3378.75
767.888	3292.75
768.642	3234.75
769.396	3194.75
770.149	3144.75
770.903	3064.75
771.656	2990.75
772.409	2933.75
773.163	2929.75
773.916	2890.75
774.669	2808.75
775.422	2761.75
776.175	2686.75
776.928	2666.75
777.681	2608.75
778.434	2544.75
779.186	2520.75
779.939	2477.75
780.692	2443.75
781.444	2373.75
782.197	2322.75
782.949	2276.75
783.701	2259.75
784.453	2248.75
785.205	2176.75
785.957	2143.75
786.709	2105.75
787.461	2087.75
788.213	2054.75
788.965	2016.75
789.716	1952.75
790.468	1923.75
791.22	1917.75
791.971	1887.75
792.722	1849.75
793.474	1800.75
794.225	1770.75
794.976	1749.75
795.727	1723.75
796.478	1703.75
797.229	1658.75
797.98	1631.75
798.731	1605.75
799.481	1584.75
800.232	1538.75
800.982	1493.75
801.733	1488.75
802.483	1457.75
803.233	1430.75
803.984	1375.75
804.734	1343.75
805.484	1325.75
806.234	1318.75
806.984	1297.75
807.734	1256.75
808.484	1205.75
809.233	1182.75
809.983	1161.75
810.732	1155.75
811.482	1118.75
812.231	1062.75
812.981	1034.75
813.73	1026.75
814.479	1013.75
815.228	993.75
815.977	956.75
816.726	919.75
817.475	900.75
818.224	893.75
818.973	857.75
819.721	838.75
820.47	823.75
821.219	803.75
821.967	818.75
822.715	799.75
823.464	761.75
824.212	756.75
824.96	743.75
825.708	758.75
826.456	754.75
827.204	730.75
827.952	716.75
828.7	702.75
829.447	703.75
830.195	717.75
830.942	711.75
831.69	703.75
832.437	689.75
833.185	677.75
833.932	683.75
834.679	681.75
835.426	683.75
836.173	664.75
836.92	651.75
837.667	641.75
838.414	647.75
839.16	641.75
839.907	634.75
840.654	613.75
841.4	600.75
842.147	604.75
842.893	591.75
843.639	584.75
844.385	565.75
845.131	555.75
845.877	548.75
846.623	538.75
847.369	535.75
848.115	505.75
848.861	495.75
849.607	480.75
850.352	475.75
851.098	473.75
851.843	468.75
852.588	449.75
853.334	435.75
854.079	415.75
854.824	412.75
855.569	427.75
856.314	404.75
857.059	397.75
857.804	393.75
858.549	376.75
859.293	371.75
860.038	373.75
860.783	372.75
861.527	365.75
862.271	358.75
863.016	349.75
863.76	344.75
864.504	345.75
865.248	340.75
865.992	344.75
866.736	332.75
867.48	339.75
868.224	340.75
868.968	337.75
869.711	339.75
870.455	333.75
871.198	320.75
871.942	319.75
872.685	329.75
873.428	327.75
874.171	325.75
874.915	318.75
875.658	309.75
876.401	306.75
877.143	298.75
877.886	311.75
878.629	306.75
879.372	301.75
880.114	301.75
880.857	294.75
881.599	289.75
882.342	299.75
883.084	295.75
883.826	293.75
884.568	294.75
885.31	284.75
886.052	285.75
886.794	284.75
887.536	289.75
888.278	293.75
889.019	291.75
889.761	284.75
890.503	289.75
891.244	287.75
891.985	299.75
892.727	291.75
893.468	295.75
894.209	279.75
894.95	293.75
895.691	290.75
896.432	295.75
897.173	297.75
897.914	293.75
898.654	287.75
899.395	279.75
900.136	275.75
900.876	296.75
901.617	293.75
902.357	286.75
903.097	288.75
903.837	269.75
904.577	271.75
905.317	267.75
906.057	280.75
906.797	277.75
907.537	273.75
908.277	266.75
909.016	258.75
909.756	258.75
910.496	248.75
911.235	259.75
911.974	254.75
912.714	248.75
913.453	241.75
914.192	232.75
914.931	227.75
915.67	226.75
916.409	226.75
917.148	228.75
917.886	221.75
918.625	209.75
919.364	206.75
920.102	204.75
920.841	206.75
921.579	199.75
922.317	195.75
923.055	184.75
923.794	183.75
924.532	166.75
925.27	174.75
926.008	164.75
926.745	163.75
927.483	159.75
928.221	152.75
928.958	150.75
929.696	135.75
930.433	134.75
931.171	128.75
931.908	125.75
932.645	124.75
933.383	106.75
934.12	102.75
934.857	98.75
935.594	90.75
936.33	84.75
937.067	87.75
937.804	83.75
938.541	77.75
939.277	69.75
940.014	69.75
940.75	62.75
941.486	64.75
942.223	58.75
942.959	58.75
943.695	57.75
944.431	59.75
945.167	56.75
945.903	52.75
946.638	55.75
947.374	51.75
948.11	50.75
948.845	46.75
949.581	45.75
950.316	48.75
951.052	44.75
951.787	44.75
952.522	44.75
953.257	41.75
953.992	40.75
954.727	40.75
955.462	39.75
956.197	37.75
956.932	40.75
957.666	37.75
958.401	38.75
959.135	38.75
959.87	35.75
960.604	42.75
961.339	35.75
962.073	38.75
962.807	36.75
963.541	36.75
964.275	41.75
965.009	38.75
965.743	41.75
966.476	37.75
967.21	39.75
967.944	38.75
968.677	36.75
969.411	39.75
970.144	36.75
970.877	43.75
971.611	37.75
972.344	37.75
973.077	34.75
973.81	37.75
974.543	43.75
975.276	38.75
976.008	39.75
976.741	38.75
977.474	38.75
978.206	39.75
978.939	40.75
979.671	40.75
980.403	40.75
981.136	42.75
981.868	44.75
982.6	41.75
983.332	42.75
984.064	39.75
984.796	45.75
985.527	43.75
986.259	44.75
986.991	3.75
987.722	-1.25
988.454	-1.25
989.185	-0.25
989.917	30.75
990.648	29.75
991.379	27.75
992.11	32.75
992.841	29.75
993.572	35.75
994.303	41.75
995.034	47.75
995.764	48.75
996.495	45.75
997.226	43.75
997.956	46.75
998.687	0.75
999.417	-0.25
1000.147	-1.25
1000.877	-0.25
