Data from FLMS155811_12-38-00-422.txt Node
Date: Mon Mar 23 12:38:00 MDT 2020
User: ECEn Student
Spectrometer: FLMS15581
Trigger mode: 0
Integration Time (sec): 1.200000E-1
Scans to average: 1
Electric dark correction enabled: true
Nonlinearity correction enabled: false
Boxcar width: 0
XAxis mode: Wavelengths
Number of Pixels in Spectrum: 2048
>>>>>Begin Spectral Data<<<<<
298.026	-8.47
298.106	-8.47
298.185	-8.47
298.265	-29.13
298.344	-38.31
298.424	-65.87
298.503	-70.46
298.583	-26.83
298.662	-42.91
298.741	-65.87
298.821	-42.91
298.9	-36.02
298.98	-24.54
299.059	19.09
299.138	39.75
299.217	60.41
299.297	21.38
299.376	14.49
299.455	85.67
299.535	51.23
299.614	83.37
299.693	129.29
299.772	175.21
299.852	152.25
299.931	257.87
300.01	205.06
300.089	168.33
300.168	200.47
300.247	294.61
300.327	296.9
300.406	294.61
300.485	377.26
300.564	347.41
300.643	374.97
300.722	377.26
300.801	347.41
300.88	457.62
300.959	397.93
301.038	374.97
301.117	407.11
301.196	370.38
301.275	361.19
301.354	423.18
301.433	411.7
301.512	349.71
301.591	414
301.67	418.59
301.749	457.62
301.828	388.74
301.907	388.74
301.985	374.97
302.064	391.04
302.143	388.74
302.222	418.59
302.301	404.82
302.38	379.56
302.458	409.41
302.537	299.2
302.616	345.12
302.695	402.52
302.773	372.67
302.852	459.92
302.931	354.3
303.01	331.34
303.088	411.7
303.167	358.89
303.246	384.15
303.324	372.67
303.403	329.05
303.481	370.38
303.56	402.52
303.639	324.45
303.717	326.75
303.796	324.45
303.874	391.04
303.953	393.34
304.032	414
304.11	363.49
304.189	299.2
304.267	377.26
304.346	370.38
304.424	301.49
304.502	335.93
304.581	349.71
304.659	347.41
304.738	386.45
304.816	296.9
304.895	349.71
304.973	379.56
305.051	384.15
305.13	352.01
305.208	322.16
305.286	329.05
305.365	349.71
305.443	397.93
305.521	340.53
305.6	361.19
305.678	365.78
305.756	365.78
305.834	391.04
305.913	356.6
305.991	400.22
306.069	333.64
306.147	393.34
306.225	358.89
306.304	329.05
306.382	427.78
306.46	358.89
306.538	384.15
306.616	333.64
306.694	374.97
306.772	423.18
306.85	365.78
306.929	338.23
307.007	381.86
307.085	457.62
307.163	384.15
307.241	379.56
307.319	411.7
307.397	432.37
307.475	407.11
307.553	425.48
307.631	363.49
307.709	384.15
307.786	379.56
307.864	363.49
307.942	414
308.02	340.53
308.098	384.15
308.176	345.12
308.254	436.96
308.332	361.19
308.409	425.48
308.487	434.66
308.565	414
308.643	335.93
308.721	386.45
308.798	363.49
308.876	335.93
308.954	434.66
309.032	363.49
309.109	352.01
309.187	345.12
309.265	441.55
309.342	377.26
309.42	358.89
309.498	446.14
309.575	436.96
309.653	425.48
309.731	439.26
309.808	393.34
309.886	368.08
309.963	423.18
310.041	340.53
310.119	407.11
310.196	443.85
310.274	439.26
310.351	416.3
310.429	393.34
310.506	395.63
310.584	391.04
310.661	439.26
310.738	455.33
310.816	370.38
310.893	361.19
310.971	450.74
311.048	329.05
311.126	432.37
311.203	349.71
311.28	358.89
311.358	374.97
311.435	439.26
311.512	411.7
311.59	384.15
311.667	443.85
311.744	397.93
311.821	402.52
311.899	384.15
311.976	416.3
312.053	363.49
312.13	414
312.208	425.48
312.285	416.3
312.362	473.7
312.439	450.74
312.516	434.66
312.593	414
312.671	312.97
312.748	423.18
312.825	439.26
312.902	400.22
312.979	333.64
313.056	342.82
313.133	361.19
313.21	333.64
313.287	326.75
313.364	386.45
313.441	441.55
313.518	436.96
313.595	414
313.672	363.49
313.749	439.26
313.826	388.74
313.903	418.59
313.98	388.74
314.057	395.63
314.134	393.34
314.211	409.41
314.287	441.55
314.364	400.22
314.441	393.34
314.518	416.3
314.595	386.45
314.672	374.97
314.748	469.1
314.825	471.4
314.902	354.3
314.979	397.93
315.055	402.52
315.132	365.78
315.209	400.22
315.286	354.3
315.362	459.92
315.439	411.7
315.516	393.34
315.592	372.67
315.669	432.37
315.746	384.15
315.822	439.26
315.899	443.85
315.975	400.22
316.052	411.7
316.128	439.26
316.205	420.89
316.282	441.55
316.358	427.78
316.435	457.62
316.511	393.34
316.588	365.78
316.664	356.6
316.741	377.26
316.817	402.52
316.893	425.48
316.97	384.15
317.046	388.74
317.123	411.7
317.199	439.26
317.275	404.82
317.352	425.48
317.428	363.49
317.504	420.89
317.581	411.7
317.657	374.97
317.733	363.49
317.81	395.63
317.886	384.15
317.962	379.56
318.038	420.89
318.115	446.14
318.191	416.3
318.267	420.89
318.343	345.12
318.419	416.3
318.496	354.3
318.572	386.45
318.648	443.85
318.724	404.82
318.8	395.63
318.876	455.33
318.952	393.34
319.028	368.08
319.105	374.97
319.181	397.93
319.257	404.82
319.333	430.07
319.409	420.89
319.485	416.3
319.561	464.51
319.637	342.82
319.713	425.48
319.789	430.07
319.865	409.41
319.94	436.96
320.016	436.96
320.092	391.04
320.168	411.7
320.244	423.18
320.32	427.78
320.396	386.45
320.472	436.96
320.547	397.93
320.623	443.85
320.699	427.78
320.775	402.52
320.851	368.08
320.926	409.41
321.002	409.41
321.078	395.63
321.154	402.52
321.229	430.07
321.305	469.1
321.381	427.78
321.456	384.15
321.532	397.93
321.608	379.56
321.683	420.89
321.759	409.41
321.835	411.7
321.91	441.55
321.986	391.04
322.061	397.93
322.137	414
322.212	416.3
322.288	430.07
322.364	391.04
322.439	423.18
322.515	384.15
322.59	446.14
322.666	384.15
322.741	418.59
322.816	402.52
322.892	420.89
322.967	446.14
323.043	420.89
323.118	381.86
323.193	384.15
323.269	462.22
323.344	363.49
323.42	379.56
323.495	450.74
323.57	379.56
323.646	409.41
323.721	423.18
323.796	427.78
323.871	443.85
323.947	423.18
324.022	349.71
324.097	420.89
324.172	409.41
324.248	427.78
324.323	379.56
324.398	430.07
324.473	439.26
324.548	381.86
324.623	446.14
324.699	418.59
324.774	420.89
324.849	384.15
324.924	432.37
324.999	400.22
325.074	340.53
325.149	384.15
325.224	388.74
325.299	416.3
325.374	482.88
325.449	425.48
325.524	407.11
325.599	409.41
325.674	450.74
325.749	469.1
325.824	349.71
325.899	414
325.974	432.37
326.049	475.99
326.124	411.7
326.199	453.03
326.273	384.15
326.348	457.62
326.423	448.44
326.498	430.07
326.573	386.45
326.648	430.07
326.722	416.3
326.797	379.56
326.872	370.38
326.947	411.7
327.021	374.97
327.096	372.67
327.171	372.67
327.245	372.67
327.32	430.07
327.395	420.89
327.47	386.45
327.544	372.67
327.619	400.22
327.693	471.4
327.768	471.4
327.843	374.97
327.917	446.14
327.992	455.33
328.066	395.63
328.141	409.41
328.215	407.11
328.29	372.67
328.364	395.63
328.439	448.44
328.513	395.63
328.588	395.63
328.662	395.63
328.737	443.85
328.811	411.7
328.886	420.89
328.96	430.07
329.035	420.89
329.109	377.26
329.183	439.26
329.258	411.7
329.332	439.26
329.406	498.95
329.481	475.99
329.555	443.85
329.629	352.01
329.704	333.64
329.778	409.41
329.852	453.03
329.926	450.74
330.001	423.18
330.075	450.74
330.149	432.37
330.223	436.96
330.297	397.93
330.372	393.34
330.446	397.93
330.52	379.56
330.594	478.29
330.668	436.96
330.742	434.66
330.816	409.41
330.89	418.59
330.964	443.85
331.038	441.55
331.113	418.59
331.187	395.63
331.261	409.41
331.335	459.92
331.409	425.48
331.483	446.14
331.557	420.89
331.63	414
331.704	411.7
331.778	381.86
331.852	414
331.926	374.97
332	443.85
332.074	361.19
332.148	418.59
332.222	425.48
332.295	397.93
332.369	400.22
332.443	469.1
332.517	528.8
332.591	436.96
332.665	459.92
332.738	418.59
332.812	475.99
332.886	478.29
332.959	432.37
333.033	448.44
333.107	446.14
333.181	480.58
333.254	420.89
333.328	411.7
333.402	448.44
333.475	473.7
333.549	482.88
333.622	443.85
333.696	411.7
333.77	485.18
333.843	455.33
333.917	455.33
333.99	482.88
334.064	430.07
334.137	361.19
334.211	455.33
334.284	409.41
334.358	391.04
334.431	439.26
334.505	409.41
334.578	414
334.652	427.78
334.725	496.66
334.799	439.26
334.872	436.96
334.945	494.36
335.019	386.45
335.092	466.81
335.165	521.91
335.239	377.26
335.312	374.97
335.385	448.44
335.459	434.66
335.532	448.44
335.605	475.99
335.678	384.15
335.752	489.77
335.825	464.51
335.898	430.07
335.971	517.32
336.045	420.89
336.118	473.7
336.191	441.55
336.264	457.62
336.337	487.47
336.41	453.03
336.483	418.59
336.557	361.19
336.63	480.58
336.703	430.07
336.776	473.7
336.849	446.14
336.922	446.14
336.995	501.25
337.068	439.26
337.141	436.96
337.214	464.51
337.287	496.66
337.36	432.37
337.433	411.7
337.506	436.96
337.579	427.78
337.652	374.97
337.725	411.7
337.797	356.6
337.87	446.14
337.943	505.84
338.016	448.44
338.089	384.15
338.162	411.7
338.235	446.14
338.307	347.41
338.38	462.22
338.453	434.66
338.526	411.7
338.598	473.7
338.671	411.7
338.744	391.04
338.817	436.96
338.889	434.66
338.962	469.1
339.035	494.36
339.107	459.92
339.18	423.18
339.253	446.14
339.325	475.99
339.398	439.26
339.47	430.07
339.543	544.87
339.616	473.7
339.688	365.78
339.761	480.58
339.833	430.07
339.906	427.78
339.978	487.47
340.051	407.11
340.123	455.33
340.196	471.4
340.268	432.37
340.341	485.18
340.413	409.41
340.485	414
340.558	450.74
340.63	512.73
340.703	475.99
340.775	473.7
340.847	402.52
340.92	443.85
340.992	315.27
341.064	485.18
341.137	423.18
341.209	393.34
341.281	436.96
341.354	473.7
341.426	512.73
341.498	448.44
341.57	393.34
341.643	459.92
341.715	436.96
341.787	439.26
341.859	466.81
341.931	420.89
342.003	425.48
342.076	482.88
342.148	480.58
342.22	420.89
342.292	425.48
342.364	441.55
342.436	455.33
342.508	515.02
342.58	453.03
342.652	436.96
342.724	475.99
342.796	487.47
342.868	485.18
342.94	459.92
343.012	464.51
343.084	503.54
343.156	411.7
343.228	480.58
343.3	439.26
343.372	473.7
343.444	480.58
343.516	485.18
343.588	414
343.66	411.7
343.731	487.47
343.803	487.47
343.875	508.14
343.947	466.81
344.019	457.62
344.09	475.99
344.162	356.6
344.234	436.96
344.306	489.77
344.377	448.44
344.449	448.44
344.521	443.85
344.593	469.1
344.664	446.14
344.736	425.48
344.808	508.14
344.879	482.88
344.951	411.7
345.023	547.17
345.094	354.3
345.166	478.29
345.237	505.84
345.309	471.4
345.38	482.88
345.452	395.63
345.524	535.69
345.595	434.66
345.667	395.63
345.738	510.43
345.81	521.91
345.881	496.66
345.953	501.25
346.024	521.91
346.095	464.51
346.167	471.4
346.238	558.65
346.31	427.78
346.381	475.99
346.452	482.88
346.524	441.55
346.595	407.11
346.666	492.06
346.738	498.95
346.809	469.1
346.88	508.14
346.952	450.74
347.023	501.25
347.094	473.7
347.165	416.3
347.237	492.06
347.308	508.14
347.379	515.02
347.45	510.43
347.521	464.51
347.593	436.96
347.664	450.74
347.735	480.58
347.806	501.25
347.877	473.7
347.948	551.76
348.019	521.91
348.09	505.84
348.161	487.47
348.233	492.06
348.304	494.36
348.375	531.1
348.446	489.77
348.517	457.62
348.588	533.39
348.659	508.14
348.73	420.89
348.801	519.62
348.871	443.85
348.942	503.54
349.013	510.43
349.084	581.61
349.155	496.66
349.226	496.66
349.297	526.5
349.368	510.43
349.439	441.55
349.509	494.36
349.58	494.36
349.651	533.39
349.722	455.33
349.793	494.36
349.863	544.87
349.934	453.03
350.005	453.03
350.076	501.25
350.146	489.77
350.217	556.35
350.288	464.51
350.358	551.76
350.429	519.62
350.5	593.09
350.57	510.43
350.641	593.09
350.711	489.77
350.782	560.94
350.853	602.27
350.923	597.68
350.994	528.8
351.064	588.5
351.135	503.54
351.205	583.9
351.276	577.02
351.346	629.82
351.417	567.83
351.487	636.71
351.558	570.13
351.628	645.9
351.699	583.9
351.769	590.79
351.84	620.64
351.91	641.3
351.98	648.19
352.051	602.27
352.121	652.78
352.191	749.22
352.262	682.63
352.332	707.89
352.402	776.77
352.473	751.51
352.543	744.62
352.613	818.1
352.683	719.37
352.754	795.14
352.824	903.05
352.894	861.72
352.964	870.91
353.035	937.49
353.105	864.02
353.175	1010.96
353.245	1031.63
353.315	981.11
353.385	1105.1
353.455	1063.77
353.526	1114.28
353.596	1125.76
353.666	1224.49
353.736	1217.6
353.806	1288.78
353.876	1254.34
353.946	1346.18
354.016	1442.61
354.086	1483.94
354.156	1534.45
354.226	1516.08
354.296	1663.03
354.366	1688.28
354.436	1699.76
354.506	1789.31
354.576	1899.52
354.645	1986.77
354.715	1959.21
354.785	2110.75
354.855	2133.71
354.925	2129.12
354.995	2315.1
355.065	2406.94
355.134	2583.73
355.204	2691.64
355.274	2574.54
355.344	2794.96
355.414	2895.99
355.483	3026.86
355.553	3120.99
355.623	3210.54
355.693	3389.63
355.762	3513.61
355.832	3655.96
355.902	3869.49
355.971	3936.08
356.041	4117.46
356.111	4266.7
356.18	4314.92
356.25	4629.47
356.319	4661.62
356.389	4762.64
356.459	4941.73
356.528	5247.1
356.598	5270.06
356.667	5602.98
356.737	5827.99
356.806	5867.02
356.876	5919.83
356.945	6381.33
357.015	6496.13
357.084	6640.78
357.154	6872.67
357.223	7072.43
357.292	7299.73
357.362	7476.52
357.431	7804.85
357.501	8050.53
357.57	8264.06
357.639	8452.33
357.709	8888.57
357.778	8916.12
357.847	9510.79
357.917	9623.29
357.986	9979.17
358.055	10013.62
358.124	10725.38
358.194	11035.34
358.263	11336.12
358.332	11255.76
358.401	11875.68
358.471	12093.8
358.54	12500.19
358.609	12729.79
358.678	13106.34
358.747	13480.59
358.816	13788.25
358.886	13958.16
358.955	14596.45
359.024	14885.75
359.093	15202.6
359.162	15732.97
359.231	16116.41
359.3	16325.35
359.369	16791.44
359.438	17519.27
359.507	17539.93
359.576	18077.2
359.645	18511.15
359.714	18988.72
359.783	19420.37
359.852	19413.48
359.921	20260.71
359.99	20765.83
360.059	21399.53
360.128	21780.66
360.197	22347.78
360.266	22448.8
360.334	22857.49
360.403	23863.14
360.472	24081.27
360.541	24669.04
360.61	25109.88
360.679	25934.15
360.747	26620.65
360.816	26691.83
360.885	27477.06
360.954	27780.14
361.022	28588.33
361.091	28815.64
361.16	29467.7
361.228	30021.04
361.297	30870.57
361.366	31380.28
361.434	31823.41
361.503	32649.97
361.572	33469.65
361.64	33678.59
361.709	34447.75
361.778	34906.95
361.846	35402.89
361.915	36263.89
361.983	37129.49
362.052	37694.31
362.12	38268.31
362.189	38566.79
362.257	39335.95
362.326	40215.32
362.394	40846.73
362.463	41225.57
362.531	41944.22
362.6	42511.33
362.668	43310.35
362.737	43556.02
362.805	44563.97
362.873	45312.47
362.942	45638.5
363.01	46607.41
363.079	46958.7
363.147	47688.84
363.215	48375.34
363.284	48905.72
363.352	49348.85
363.42	50023.88
363.488	50306.29
363.557	50779.26
363.625	51493.32
363.693	52074.21
363.761	52558.67
363.83	53272.73
363.898	53481.67
363.966	53904.13
364.034	54179.65
364.102	54533.24
364.171	54879.94
364.239	55279.44
364.307	55711.09
364.375	55734.05
364.443	56080.75
364.511	56482.55
364.579	56797.11
364.647	57311.41
364.715	57557.08
364.783	57561.68
364.851	57972.66
364.919	58016.29
364.987	58429.57
365.055	58656.87
365.123	59040.31
365.191	59210.21
365.259	59194.14
365.327	59446.7
365.395	59648.75
365.463	59834.73
365.531	59827.84
365.599	60091.88
365.667	60424.8
365.735	60291.63
365.802	60489.09
365.87	60739.35
365.938	60760.02
366.006	61042.43
366.074	61021.76
366.142	61143.45
366.209	61115.9
366.277	61297.28
366.345	61363.87
366.413	61428.16
366.48	61368.46
366.548	61441.93
366.616	61598.06
366.683	61694.49
366.751	61836.85
366.819	61705.97
366.886	61995.27
366.954	61733.53
367.022	61882.77
367.089	61811.59
367.157	61724.34
367.224	61827.66
367.292	61761.08
367.36	61765.67
367.427	62006.75
367.495	61765.67
367.562	61857.51
367.63	61522.29
367.697	61786.33
367.765	61685.31
367.832	61464.89
367.9	61464.89
367.967	61421.27
368.034	61441.93
368.102	61359.28
368.169	61386.83
368.237	61244.48
368.304	61168.71
368.371	61030.95
368.439	60902.37
368.506	60865.63
368.573	60739.35
368.641	60831.19
368.708	60518.94
368.775	60615.37
368.843	60569.45
368.91	60248.01
368.977	60303.11
369.044	60335.26
369.112	60163.06
369.179	59993.15
369.246	59827.84
369.313	59795.69
369.38	59802.58
369.448	59841.61
369.515	59669.41
369.582	59467.36
369.649	59442.11
369.716	59283.68
369.783	59134.44
369.85	59116.07
369.917	59093.11
369.984	59113.78
370.052	58854.33
370.119	58799.23
370.186	58817.59
370.253	58503.04
370.32	58512.22
370.387	58466.3
370.454	58250.48
370.521	58227.52
370.587	58441.05
370.654	58197.67
370.721	58156.34
370.788	58020.88
370.855	57880.82
370.922	57952
370.989	57687.96
371.056	57759.13
371.123	57355.04
371.189	57139.21
371.256	56787.92
371.323	56813.18
371.39	56700.67
371.457	56011.87
371.523	55554.96
371.59	55155.46
371.657	54905.19
371.724	54294.45
371.79	53651.57
371.857	52981.14
371.924	52340.55
371.991	50820.59
372.057	49564.68
372.124	48150.33
372.191	46589.05
372.257	45059.9
372.324	43073.86
372.39	41712.32
372.457	39485.19
372.524	37900.95
372.59	35703.67
372.657	33745.17
372.723	31334.36
372.79	29633.02
372.856	28101.58
372.923	26322.17
372.989	24333.83
373.056	22829.94
373.122	20701.54
373.189	19463.99
373.255	17806.27
373.322	16568.72
373.388	15193.41
373.454	14242.86
373.521	12954.8
373.587	11887.16
373.654	11166.21
373.72	10231.74
373.786	9278.89
373.853	8711.78
373.919	8252.58
373.985	7432.9
374.052	6969.11
374.118	6461.69
374.184	6131.06
374.25	5524.92
374.317	5116.23
374.383	4723.61
374.449	4432.02
374.515	4092.21
374.581	3779.95
374.648	3649.08
374.714	3458.51
374.78	3247.27
374.846	2935.02
374.912	2843.18
374.978	2700.82
375.044	2503.37
375.11	2347.24
375.177	2223.25
375.243	2090.09
375.309	1991.36
375.375	1993.65
375.441	1768.64
375.507	1697.47
375.573	1548.23
375.639	1628.59
375.705	1495.42
375.771	1460.98
375.837	1389.8
375.903	1373.73
375.968	1295.67
376.034	1297.96
376.1	1141.83
376.166	1217.6
376.232	1116.58
376.298	1049.99
376.364	1052.29
376.43	1001.78
376.495	1006.37
376.561	1006.37
376.627	932.9
376.693	923.71
376.759	852.54
376.824	923.71
376.89	896.16
376.956	951.27
377.022	818.1
377.087	829.58
377.153	822.69
377.219	790.54
377.284	795.14
377.35	723.96
377.416	776.77
377.481	712.48
377.547	737.74
377.613	680.34
377.678	645.9
377.744	703.3
377.809	712.48
377.875	707.89
377.94	710.18
378.006	684.93
378.071	634.42
378.137	675.74
378.202	549.46
378.268	648.19
378.333	666.56
378.399	604.57
378.464	597.68
378.53	655.08
378.595	620.64
378.661	593.09
378.726	572.42
378.791	577.02
378.857	542.58
378.922	537.98
378.987	551.76
379.053	505.84
379.118	590.79
379.183	590.79
379.249	551.76
379.314	595.38
379.379	471.4
379.444	602.27
379.51	528.8
379.575	563.24
379.64	531.1
379.705	579.31
379.771	537.98
379.836	602.27
379.901	505.84
379.966	544.87
380.031	558.65
380.096	533.39
380.161	501.25
380.227	503.54
380.292	533.39
380.357	526.5
380.422	526.5
380.487	528.8
380.552	554.06
380.617	531.1
380.682	482.88
380.747	432.37
380.812	565.54
380.877	432.37
380.942	485.18
381.007	473.7
381.072	586.2
381.137	496.66
381.202	517.32
381.266	531.1
381.331	446.14
381.396	535.69
381.461	448.44
381.526	455.33
381.591	535.69
381.656	492.06
381.72	464.51
381.785	526.5
381.85	505.84
381.915	496.66
381.979	455.33
382.044	515.02
382.109	510.43
382.174	466.81
382.238	439.26
382.303	478.29
382.368	544.87
382.432	446.14
382.497	489.77
382.562	480.58
382.626	489.77
382.691	528.8
382.756	459.92
382.82	501.25
382.885	427.78
382.949	464.51
383.014	519.62
383.078	411.7
383.143	464.51
383.208	482.88
383.272	469.1
383.337	478.29
383.401	480.58
383.465	464.51
383.53	395.63
383.594	485.18
383.659	416.3
383.723	505.84
383.788	469.1
383.852	457.62
383.916	494.36
383.981	501.25
384.045	517.32
384.109	434.66
384.174	503.54
384.238	443.85
384.302	427.78
384.367	459.92
384.431	473.7
384.495	512.73
384.56	473.7
384.624	409.41
384.688	471.4
384.752	423.18
384.816	443.85
384.881	478.29
384.945	492.06
385.009	423.18
385.073	471.4
385.137	473.7
385.201	517.32
385.265	450.74
385.33	453.03
385.394	459.92
385.458	478.29
385.522	450.74
385.586	466.81
385.65	482.88
385.714	425.48
385.778	480.58
385.842	480.58
385.906	457.62
385.97	469.1
386.034	492.06
386.098	450.74
386.162	459.92
386.226	498.95
386.29	466.81
386.354	432.37
386.417	411.7
386.481	457.62
386.545	482.88
386.609	420.89
386.673	512.73
386.737	480.58
386.8	457.62
386.864	492.06
386.928	420.89
386.992	462.22
387.056	441.55
387.119	430.07
387.183	459.92
387.247	397.93
387.31	441.55
387.374	411.7
387.438	407.11
387.502	453.03
387.565	510.43
387.629	498.95
387.692	462.22
387.756	409.41
387.82	487.47
387.883	528.8
387.947	395.63
388.01	482.88
388.074	409.41
388.138	379.56
388.201	409.41
388.265	439.26
388.328	450.74
388.392	450.74
388.455	423.18
388.519	473.7
388.582	430.07
388.645	439.26
388.709	416.3
388.772	388.74
388.836	436.96
388.899	374.97
388.962	402.52
389.026	492.06
389.089	510.43
389.153	464.51
389.216	430.07
389.279	379.56
389.343	414
389.406	496.66
389.469	492.06
389.532	448.44
389.596	446.14
389.659	374.97
389.722	420.89
389.785	349.71
389.848	480.58
389.912	432.37
389.975	416.3
390.038	498.95
390.101	425.48
390.164	487.47
390.227	475.99
390.291	496.66
390.354	432.37
390.417	510.43
390.48	494.36
390.543	466.81
390.606	393.34
390.669	434.66
390.732	423.18
390.795	498.95
390.858	407.11
390.921	407.11
390.984	404.82
391.047	475.99
391.11	427.78
391.173	432.37
391.236	377.26
391.299	434.66
391.362	420.89
391.424	427.78
391.487	420.89
391.55	402.52
391.613	386.45
391.676	448.44
391.739	409.41
391.802	494.36
391.864	434.66
391.927	434.66
391.99	430.07
392.053	395.63
392.115	425.48
392.178	515.02
392.241	455.33
392.304	384.15
392.366	411.7
392.429	432.37
392.492	434.66
392.554	381.86
392.617	462.22
392.68	416.3
392.742	480.58
392.805	358.89
392.867	414
392.93	446.14
392.992	414
393.055	501.25
393.118	439.26
393.18	517.32
393.243	414
393.305	471.4
393.368	501.25
393.43	384.15
393.493	501.25
393.555	416.3
393.618	441.55
393.68	386.45
393.742	407.11
393.805	404.82
393.867	441.55
393.93	430.07
393.992	457.62
394.054	446.14
394.117	508.14
394.179	430.07
394.241	420.89
394.304	425.48
394.366	446.14
394.428	441.55
394.49	393.34
394.553	430.07
394.615	377.26
394.677	377.26
394.739	471.4
394.802	379.56
394.864	471.4
394.926	407.11
394.988	434.66
395.05	478.29
395.112	418.59
395.174	473.7
395.237	455.33
395.299	441.55
395.361	425.48
395.423	469.1
395.485	441.55
395.547	473.7
395.609	393.34
395.671	391.04
395.733	384.15
395.795	379.56
395.857	414
395.919	384.15
395.981	400.22
396.043	388.74
396.105	404.82
396.167	466.81
396.229	420.89
396.291	409.41
396.352	436.96
396.414	448.44
396.476	462.22
396.538	361.19
396.6	441.55
396.662	441.55
396.724	397.93
396.785	368.08
396.847	418.59
396.909	443.85
396.971	370.38
397.032	386.45
397.094	430.07
397.156	368.08
397.218	404.82
397.279	345.12
397.341	407.11
397.403	356.6
397.464	462.22
397.526	439.26
397.588	377.26
397.649	368.08
397.711	402.52
397.772	464.51
397.834	453.03
397.896	443.85
397.957	434.66
398.019	466.81
398.08	418.59
398.142	455.33
398.203	358.89
398.265	455.33
398.326	356.6
398.388	423.18
398.449	423.18
398.511	393.34
398.572	400.22
398.633	374.97
398.695	439.26
398.756	434.66
398.818	397.93
398.879	478.29
398.94	434.66
399.002	393.34
399.063	381.86
399.124	414
399.186	356.6
399.247	414
399.308	453.03
399.369	459.92
399.431	397.93
399.492	416.3
399.553	370.38
399.614	409.41
399.676	329.05
399.737	427.78
399.798	450.74
399.859	400.22
399.92	395.63
399.981	397.93
400.042	372.67
400.104	443.85
400.165	404.82
400.226	397.93
400.287	409.41
400.348	414
400.409	404.82
400.47	411.7
400.531	335.93
400.592	441.55
400.653	411.7
400.714	443.85
400.775	420.89
400.836	391.04
400.897	411.7
400.958	388.74
401.019	423.18
401.08	425.48
401.141	386.45
401.201	420.89
401.262	432.37
401.323	402.52
401.384	381.86
401.445	393.34
401.506	384.15
401.567	462.22
401.627	434.66
401.688	455.33
401.749	430.07
401.81	430.07
401.87	441.55
401.931	381.86
401.992	446.14
402.053	397.93
402.113	397.93
402.174	485.18
402.235	441.55
402.295	386.45
402.356	377.26
402.417	395.63
402.477	420.89
402.538	416.3
402.598	420.89
402.659	379.56
402.719	439.26
402.78	416.3
402.841	446.14
402.901	407.11
402.962	395.63
403.022	448.44
403.083	459.92
403.143	386.45
403.204	414
403.264	384.15
403.324	402.52
403.385	411.7
403.445	425.48
403.506	420.89
403.566	384.15
403.627	384.15
403.687	397.93
403.747	409.41
403.808	342.82
403.868	439.26
403.928	443.85
403.989	469.1
404.049	368.08
404.109	386.45
404.169	498.95
404.23	423.18
404.29	384.15
404.35	338.23
404.41	411.7
404.47	400.22
404.531	370.38
404.591	443.85
404.651	388.74
404.711	388.74
404.771	423.18
404.831	418.59
404.892	391.04
404.952	377.26
405.012	349.71
405.072	338.23
405.132	377.26
405.192	432.37
405.252	407.11
405.312	393.34
405.372	370.38
405.432	411.7
405.492	338.23
405.552	400.22
405.612	397.93
405.672	414
405.732	397.93
405.792	439.26
405.852	441.55
405.912	414
405.971	434.66
406.031	391.04
406.091	374.97
406.151	416.3
406.211	397.93
406.271	455.33
406.33	358.89
406.39	374.97
406.45	400.22
406.51	492.06
406.57	386.45
406.629	425.48
406.689	393.34
406.749	414
406.808	335.93
406.868	407.11
406.928	386.45
406.988	443.85
407.047	388.74
407.107	377.26
407.166	418.59
407.226	430.07
407.286	414
407.345	432.37
407.405	416.3
407.464	455.33
407.524	407.11
407.584	402.52
407.643	365.78
407.703	432.37
407.762	427.78
407.822	469.1
407.881	352.01
407.941	388.74
408	420.89
408.059	391.04
408.119	388.74
408.178	414
408.238	391.04
408.297	434.66
408.356	363.49
408.416	427.78
408.475	480.58
408.535	404.82
408.594	372.67
408.653	404.82
408.712	377.26
408.772	432.37
408.831	384.15
408.89	340.53
408.95	365.78
409.009	384.15
409.068	374.97
409.127	425.48
409.186	374.97
409.246	388.74
409.305	425.48
409.364	443.85
409.423	400.22
409.482	397.93
409.541	409.41
409.6	372.67
409.66	395.63
409.719	418.59
409.778	436.96
409.837	395.63
409.896	372.67
409.955	439.26
410.014	345.12
410.073	404.82
410.132	397.93
410.191	436.96
410.25	416.3
410.309	400.22
410.368	397.93
410.427	368.08
410.486	400.22
410.545	386.45
410.603	418.59
410.662	377.26
410.721	425.48
410.78	372.67
410.839	425.48
410.898	326.75
410.957	329.05
411.015	381.86
411.074	372.67
411.133	363.49
411.192	372.67
411.25	411.7
411.309	368.08
411.368	441.55
411.427	377.26
411.485	372.67
411.544	393.34
411.603	379.56
411.661	416.3
411.72	338.23
411.779	418.59
411.837	457.62
411.896	368.08
411.955	368.08
412.013	411.7
412.072	299.2
412.13	393.34
412.189	342.82
412.247	356.6
412.306	315.27
412.364	409.41
412.423	439.26
412.481	400.22
412.54	347.41
412.598	395.63
412.657	414
412.715	361.19
412.774	312.97
412.832	416.3
412.891	365.78
412.949	388.74
413.007	363.49
413.066	407.11
413.124	386.45
413.182	397.93
413.241	404.82
413.299	391.04
413.357	404.82
413.416	361.19
413.474	377.26
413.532	457.62
413.59	459.92
413.649	397.93
413.707	400.22
413.765	352.01
413.823	338.23
413.881	416.3
413.94	414
413.998	450.74
414.056	455.33
414.114	338.23
414.172	404.82
414.23	393.34
414.288	379.56
414.347	432.37
414.405	365.78
414.463	425.48
414.521	310.68
414.579	294.61
414.637	475.99
414.695	420.89
414.753	478.29
414.811	333.64
414.869	430.07
414.927	402.52
414.985	402.52
415.043	365.78
415.101	358.89
415.158	306.09
415.216	402.52
415.274	434.66
415.332	407.11
415.39	397.93
415.448	391.04
415.506	365.78
415.563	368.08
415.621	400.22
415.679	381.86
415.737	418.59
415.795	370.38
415.852	379.56
415.91	441.55
415.968	381.86
416.026	400.22
416.083	358.89
416.141	391.04
416.199	397.93
416.256	423.18
416.314	455.33
416.372	425.48
416.429	414
416.487	326.75
416.544	393.34
416.602	335.93
416.66	340.53
416.717	379.56
416.775	386.45
416.832	384.15
416.89	436.96
416.947	430.07
417.005	349.71
417.062	407.11
417.12	434.66
417.177	358.89
417.235	425.48
417.292	370.38
417.35	317.57
417.407	381.86
417.464	324.45
417.522	372.67
417.579	372.67
417.637	391.04
417.694	345.12
417.751	363.49
417.809	423.18
417.866	414
417.923	441.55
417.981	377.26
418.038	423.18
418.095	407.11
418.152	416.3
418.21	388.74
418.267	416.3
418.324	425.48
418.381	404.82
418.438	427.78
418.496	409.41
418.553	418.59
418.61	340.53
418.667	443.85
418.724	418.59
418.781	372.67
418.838	363.49
418.895	443.85
418.952	427.78
419.01	335.93
419.067	404.82
419.124	414
419.181	414
419.238	391.04
419.295	409.41
419.352	448.44
419.409	384.15
419.466	430.07
419.523	317.57
419.579	299.2
419.636	365.78
419.693	379.56
419.75	370.38
419.807	386.45
419.864	432.37
419.921	397.93
419.978	482.88
420.034	423.18
420.091	407.11
420.148	416.3
420.205	446.14
420.262	372.67
420.318	475.99
420.375	414
420.432	423.18
420.489	450.74
420.545	340.53
420.602	397.93
420.659	402.52
420.715	439.26
420.772	430.07
420.829	393.34
420.885	418.59
420.942	416.3
420.999	416.3
421.055	342.82
421.112	374.97
421.168	372.67
421.225	395.63
421.282	400.22
421.338	436.96
421.395	379.56
421.451	404.82
421.508	425.48
421.564	404.82
421.621	386.45
421.677	395.63
421.734	379.56
421.79	446.14
421.846	374.97
421.903	434.66
421.959	342.82
422.016	349.71
422.072	427.78
422.128	430.07
422.185	377.26
422.241	395.63
422.297	443.85
422.354	377.26
422.41	462.22
422.466	338.23
422.523	411.7
422.579	381.86
422.635	411.7
422.691	358.89
422.748	416.3
422.804	402.52
422.86	381.86
422.916	466.81
422.972	411.7
423.029	395.63
423.085	388.74
423.141	372.67
423.197	407.11
423.253	342.82
423.309	324.45
423.365	414
423.421	427.78
423.477	432.37
423.533	358.89
423.589	436.96
423.645	347.41
423.701	340.53
423.757	397.93
423.813	352.01
423.869	455.33
423.925	425.48
423.981	388.74
424.037	335.93
424.093	450.74
424.149	414
424.205	363.49
424.261	386.45
424.317	358.89
424.373	411.7
424.428	365.78
424.484	326.75
424.54	388.74
424.596	384.15
424.652	416.3
424.708	411.7
424.763	354.3
424.819	400.22
424.875	397.93
424.931	446.14
424.986	397.93
425.042	358.89
425.098	349.71
425.153	427.78
425.209	345.12
425.265	409.41
425.32	329.05
425.376	365.78
425.432	363.49
425.487	409.41
425.543	345.12
425.598	393.34
425.654	407.11
425.709	414
425.765	368.08
425.82	363.49
425.876	388.74
425.932	423.18
425.987	374.97
426.042	397.93
426.098	386.45
426.153	372.67
426.209	379.56
426.264	374.97
426.32	377.26
426.375	352.01
426.43	303.79
426.486	432.37
426.541	384.15
426.597	393.34
426.652	354.3
426.707	338.23
426.763	393.34
426.818	420.89
426.873	361.19
426.928	395.63
426.984	388.74
427.039	379.56
427.094	384.15
427.149	381.86
427.205	402.52
427.26	345.12
427.315	473.7
427.37	384.15
427.425	391.04
427.48	407.11
427.536	349.71
427.591	345.12
427.646	425.48
427.701	345.12
427.756	395.63
427.811	379.56
427.866	404.82
427.921	400.22
427.976	446.14
428.031	384.15
428.086	377.26
428.141	453.03
428.196	432.37
428.251	345.12
428.306	425.48
428.361	407.11
428.416	395.63
428.471	393.34
428.526	418.59
428.581	400.22
428.636	391.04
428.691	397.93
428.745	416.3
428.8	372.67
428.855	345.12
428.91	349.71
428.965	414
429.02	436.96
429.074	331.34
429.129	377.26
429.184	397.93
429.239	324.45
429.293	386.45
429.348	370.38
429.403	388.74
429.457	386.45
429.512	391.04
429.567	439.26
429.621	377.26
429.676	331.34
429.731	407.11
429.785	404.82
429.84	393.34
429.895	397.93
429.949	397.93
430.004	400.22
430.058	379.56
430.113	374.97
430.167	368.08
430.222	391.04
430.276	473.7
430.331	372.67
430.385	361.19
430.44	430.07
430.494	391.04
430.549	372.67
430.603	381.86
430.657	363.49
430.712	425.48
430.766	377.26
430.821	381.86
430.875	386.45
430.929	414
430.984	335.93
431.038	379.56
431.092	363.49
431.147	402.52
431.201	402.52
431.255	418.59
431.309	404.82
431.364	395.63
431.418	379.56
431.472	365.78
431.526	377.26
431.581	361.19
431.635	402.52
431.689	418.59
431.743	397.93
431.797	356.6
431.851	381.86
431.906	388.74
431.96	432.37
432.014	363.49
432.068	411.7
432.122	436.96
432.176	418.59
432.23	411.7
432.284	386.45
432.338	393.34
432.392	423.18
432.446	381.86
432.5	361.19
432.554	416.3
432.608	407.11
432.662	333.64
432.716	391.04
432.77	372.67
432.824	372.67
432.878	404.82
432.931	409.41
432.985	409.41
433.039	372.67
433.093	345.12
433.147	352.01
433.201	391.04
433.254	377.26
433.308	432.37
433.362	391.04
433.416	280.83
433.47	377.26
433.523	273.94
433.577	388.74
433.631	377.26
433.684	368.08
433.738	374.97
433.792	379.56
433.846	427.78
433.899	397.93
433.953	352.01
434.006	416.3
434.06	404.82
434.114	381.86
434.167	381.86
434.221	381.86
