Data from FLMS155811_12-33-20-428.txt Node
Date: Mon Mar 23 12:33:20 MDT 2020
User: ECEn Student
Spectrometer: FLMS15581
Trigger mode: 0
Integration Time (sec): 1.000000E-1
Scans to average: 1
Electric dark correction enabled: true
Nonlinearity correction enabled: false
Boxcar width: 0
XAxis mode: Wavelengths
Number of Pixels in Spectrum: 2048
>>>>>Begin Spectral Data<<<<<
298.026	10.19
298.106	10.19
298.185	10.19
298.265	-42.62
298.344	-21.96
298.424	-63.28
298.503	-95.43
298.583	-100.02
298.662	-79.36
298.741	30.85
298.821	-17.36
298.9	-60.99
298.98	-44.92
299.059	-65.58
299.138	40.04
299.217	46.92
299.297	49.22
299.376	88.25
299.455	60.7
299.535	131.88
299.614	79.07
299.693	118.1
299.772	173.21
299.852	177.8
299.931	200.76
300.01	232.9
300.089	207.65
300.168	267.34
300.247	320.15
300.327	290.3
300.406	315.56
300.485	274.23
300.564	331.63
300.643	350
300.722	333.93
300.801	366.07
300.88	368.37
300.959	368.37
301.038	400.51
301.117	375.25
301.196	354.59
301.275	395.92
301.354	377.55
301.433	398.21
301.512	391.33
301.591	421.17
301.67	377.55
301.749	473.98
301.828	384.44
301.907	421.17
301.985	483.17
302.064	469.39
302.143	352.29
302.222	368.37
302.301	437.25
302.38	499.24
302.458	400.51
302.537	421.17
302.616	405.1
302.695	407.4
302.773	379.85
302.852	375.25
302.931	363.77
303.01	400.51
303.088	347.7
303.167	384.44
303.246	336.22
303.324	421.17
303.403	361.48
303.481	405.1
303.56	423.47
303.639	356.89
303.717	377.55
303.796	384.44
303.874	391.33
303.953	418.88
304.032	391.33
304.11	368.37
304.189	354.59
304.267	333.93
304.346	379.85
304.424	366.07
304.502	391.33
304.581	347.7
304.659	430.36
304.738	338.52
304.816	405.1
304.895	352.29
304.973	395.92
305.051	368.37
305.13	372.96
305.208	327.04
305.286	329.33
305.365	345.41
305.443	359.18
305.521	402.81
305.6	343.11
305.678	345.41
305.756	370.66
305.834	382.14
305.913	441.84
305.991	384.44
306.069	370.66
306.147	389.03
306.225	338.52
306.304	363.77
306.382	359.18
306.46	361.48
306.538	393.62
306.616	363.77
306.694	366.07
306.772	386.73
306.85	439.54
306.929	382.14
307.007	384.44
307.085	441.84
307.163	409.69
307.241	340.81
307.319	421.17
307.397	428.06
307.475	400.51
307.553	320.15
307.631	372.96
307.709	382.14
307.786	411.99
307.864	389.03
307.942	386.73
308.02	421.17
308.098	389.03
308.176	455.61
308.254	352.29
308.332	382.14
308.409	382.14
308.487	347.7
308.565	370.66
308.643	407.4
308.721	476.28
308.798	384.44
308.876	423.47
308.954	430.36
309.032	430.36
309.109	340.81
309.187	363.77
309.265	441.84
309.342	322.45
309.42	441.84
309.498	405.1
309.575	384.44
309.653	510.72
309.731	368.37
309.808	395.92
309.886	363.77
309.963	345.41
310.041	439.54
310.119	432.65
310.196	391.33
310.274	439.54
310.351	393.62
310.429	460.21
310.506	418.88
310.584	434.95
310.661	377.55
310.738	460.21
310.816	414.29
310.893	434.95
310.971	421.17
311.048	377.55
311.126	437.25
311.203	386.73
311.28	430.36
311.358	464.8
311.435	414.29
311.512	421.17
311.59	405.1
311.667	400.51
311.744	421.17
311.821	372.96
311.899	405.1
311.976	423.47
312.053	448.73
312.13	363.77
312.208	370.66
312.285	418.88
312.362	432.65
312.439	428.06
312.516	407.4
312.593	462.5
312.671	411.99
312.748	405.1
312.825	421.17
312.902	421.17
312.979	384.44
313.056	423.47
313.133	460.21
313.21	460.21
313.287	363.77
313.364	418.88
313.441	395.92
313.518	428.06
313.595	428.06
313.672	384.44
313.749	361.48
313.826	400.51
313.903	407.4
313.98	444.13
314.057	437.25
314.134	439.54
314.211	384.44
314.287	425.77
314.364	389.03
314.441	389.03
314.518	473.98
314.595	432.65
314.672	439.54
314.748	384.44
314.825	439.54
314.902	411.99
314.979	409.69
315.055	400.51
315.132	313.26
315.209	441.84
315.286	340.81
315.362	411.99
315.439	411.99
315.516	451.02
315.592	372.96
315.669	423.47
315.746	405.1
315.822	409.69
315.899	382.14
315.975	393.62
316.052	446.43
316.128	473.98
316.205	384.44
316.282	370.66
316.358	363.77
316.435	434.95
316.511	338.52
316.588	414.29
316.664	425.77
316.741	407.4
316.817	384.44
316.893	400.51
316.97	437.25
317.046	421.17
317.123	375.25
317.199	432.65
317.275	407.4
317.352	402.81
317.428	405.1
317.504	386.73
317.581	391.33
317.657	375.25
317.733	359.18
317.81	395.92
317.886	432.65
317.962	384.44
318.038	423.47
318.115	336.22
318.191	382.14
318.267	455.61
318.343	441.84
318.419	446.43
318.496	375.25
318.572	402.81
318.648	457.91
318.724	469.39
318.8	398.21
318.876	428.06
318.952	446.43
319.028	386.73
319.105	368.37
319.181	416.58
319.257	370.66
319.333	320.15
319.409	451.02
319.485	409.69
319.561	457.91
319.637	430.36
319.713	423.47
319.789	418.88
319.865	407.4
319.94	428.06
320.016	473.98
320.092	432.65
320.168	379.85
320.244	430.36
320.32	425.77
320.396	439.54
320.472	455.61
320.547	453.32
320.623	446.43
320.699	434.95
320.775	409.69
320.851	402.81
320.926	398.21
321.002	402.81
321.078	462.5
321.154	421.17
321.229	451.02
321.305	439.54
321.381	455.61
321.456	425.77
321.532	446.43
321.608	391.33
321.683	423.47
321.759	425.77
321.835	439.54
321.91	462.5
321.986	444.13
322.061	409.69
322.137	462.5
322.212	386.73
322.288	407.4
322.364	448.73
322.439	439.54
322.515	434.95
322.59	469.39
322.666	526.79
322.741	428.06
322.816	428.06
322.892	439.54
322.967	446.43
323.043	453.32
323.118	425.77
323.193	434.95
323.269	368.37
323.344	379.85
323.42	457.91
323.495	416.58
323.57	434.95
323.646	359.18
323.721	462.5
323.796	432.65
323.871	434.95
323.947	430.36
324.022	382.14
324.097	448.73
324.172	395.92
324.248	393.62
324.323	400.51
324.398	439.54
324.473	391.33
324.548	400.51
324.623	441.84
324.699	402.81
324.774	418.88
324.849	393.62
324.924	444.13
324.999	441.84
325.074	446.43
325.149	434.95
325.224	451.02
325.299	439.54
325.374	386.73
325.449	453.32
325.524	407.4
325.599	455.61
325.674	409.69
325.749	428.06
325.824	421.17
325.899	462.5
325.974	471.69
326.049	457.91
326.124	361.48
326.199	386.73
326.273	448.73
326.348	517.61
326.423	423.47
326.498	421.17
326.573	510.72
326.648	382.14
326.722	416.58
326.797	469.39
326.872	432.65
326.947	471.69
327.021	453.32
327.096	471.69
327.171	437.25
327.245	437.25
327.32	393.62
327.395	448.73
327.47	490.05
327.544	430.36
327.619	430.36
327.693	460.21
327.768	405.1
327.843	416.58
327.917	423.47
327.992	515.31
328.066	441.84
328.141	469.39
328.215	430.36
328.29	400.51
328.364	409.69
328.439	446.43
328.513	455.61
328.588	460.21
328.662	462.5
328.737	453.32
328.811	430.36
328.886	356.89
328.96	372.96
329.035	444.13
329.109	448.73
329.183	469.39
329.258	423.47
329.332	425.77
329.406	448.73
329.481	473.98
329.555	395.92
329.629	432.65
329.704	416.58
329.778	432.65
329.852	402.81
329.926	437.25
330.001	455.61
330.075	425.77
330.149	469.39
330.223	400.51
330.297	421.17
330.372	448.73
330.446	513.01
330.52	446.43
330.594	448.73
330.668	464.8
330.742	451.02
330.816	446.43
330.89	453.32
330.964	446.43
331.038	411.99
331.113	409.69
331.187	490.05
331.261	411.99
331.335	430.36
331.409	423.47
331.483	402.81
331.557	439.54
331.63	464.8
331.704	437.25
331.778	455.61
331.852	386.73
331.926	464.8
332	476.28
332.074	434.95
332.148	407.4
332.222	386.73
332.295	453.32
332.369	510.72
332.443	444.13
332.517	439.54
332.591	510.72
332.665	370.66
332.738	402.81
332.812	448.73
332.886	478.57
332.959	425.77
333.033	480.87
333.107	451.02
333.181	487.76
333.254	418.88
333.328	389.03
333.402	480.87
333.475	483.17
333.549	432.65
333.622	416.58
333.696	490.05
333.77	476.28
333.843	457.91
333.917	515.31
333.99	494.65
334.064	462.5
334.137	455.61
334.211	506.13
334.284	469.39
334.358	441.84
334.431	453.32
334.505	508.42
334.578	473.98
334.652	437.25
334.725	395.92
334.799	462.5
334.872	411.99
334.945	416.58
335.019	480.87
335.092	414.29
335.165	444.13
335.239	423.47
335.312	457.91
335.385	439.54
335.459	492.35
335.532	425.77
335.605	478.57
335.678	446.43
335.752	437.25
335.825	402.81
335.898	444.13
335.971	437.25
336.045	407.4
336.118	434.95
336.191	391.33
336.264	513.01
336.337	499.24
336.41	485.46
336.483	480.87
336.557	444.13
336.63	395.92
336.703	448.73
336.776	368.37
336.849	444.13
336.922	457.91
336.995	455.61
337.068	400.51
337.141	428.06
337.214	457.91
337.287	451.02
337.36	439.54
337.433	476.28
337.506	375.25
337.579	451.02
337.652	464.8
337.725	487.76
337.797	469.39
337.87	473.98
337.943	487.76
338.016	425.77
338.089	483.17
338.162	441.84
338.235	457.91
338.307	483.17
338.38	416.58
338.453	434.95
338.526	395.92
338.598	455.61
338.671	457.91
338.744	499.24
338.817	480.87
338.889	529.09
338.962	444.13
339.035	460.21
339.107	421.17
339.18	421.17
339.253	499.24
339.325	457.91
339.398	395.92
339.47	451.02
339.543	515.31
339.616	462.5
339.688	469.39
339.761	451.02
339.833	519.9
339.906	460.21
339.978	490.05
340.051	409.69
340.123	409.69
340.196	439.54
340.268	446.43
340.341	407.4
340.413	494.65
340.485	517.61
340.558	432.65
340.63	416.58
340.703	499.24
340.775	363.77
340.847	434.95
340.92	414.29
340.992	457.91
341.064	517.61
341.137	421.17
341.209	425.77
341.281	460.21
341.354	552.05
341.426	522.2
341.498	414.29
341.57	434.95
341.643	451.02
341.715	519.9
341.787	464.8
341.859	377.55
341.931	430.36
342.003	460.21
342.076	494.65
342.148	434.95
342.22	446.43
342.292	506.13
342.364	437.25
342.436	515.31
342.508	462.5
342.58	416.58
342.652	542.86
342.724	513.01
342.796	538.27
342.868	480.87
342.94	494.65
343.012	400.51
343.084	506.13
343.156	499.24
343.228	485.46
343.3	483.17
343.372	467.09
343.444	460.21
343.516	471.69
343.588	483.17
343.66	476.28
343.731	437.25
343.803	464.8
343.875	494.65
343.947	522.2
344.019	473.98
344.09	425.77
344.162	457.91
344.234	506.13
344.306	446.43
344.377	513.01
344.449	480.87
344.521	460.21
344.593	496.94
344.664	398.21
344.736	501.53
344.808	508.42
344.879	538.27
344.951	483.17
345.023	513.01
345.094	494.65
345.166	508.42
345.237	457.91
345.309	457.91
345.38	405.1
345.452	487.76
345.524	490.05
345.595	506.13
345.667	473.98
345.738	515.31
345.81	529.09
345.881	485.46
345.953	487.76
346.024	499.24
346.095	437.25
346.167	467.09
346.238	524.49
346.31	519.9
346.381	453.32
346.452	485.46
346.524	469.39
346.595	483.17
346.666	526.79
346.738	439.54
346.809	460.21
346.88	478.57
346.952	480.87
347.023	476.28
347.094	510.72
347.165	423.47
347.237	529.09
347.308	462.5
347.379	510.72
347.45	490.05
347.521	515.31
347.593	549.75
347.664	535.97
347.735	522.2
347.806	545.16
347.877	533.68
347.948	529.09
348.019	494.65
348.09	483.17
348.161	467.09
348.233	437.25
348.304	467.09
348.375	428.06
348.446	563.53
348.517	529.09
348.588	485.46
348.659	483.17
348.73	517.61
348.801	508.42
348.871	540.57
348.942	492.35
349.013	430.36
349.084	499.24
349.155	499.24
349.226	542.86
349.297	485.46
349.368	575.01
349.439	554.34
349.509	517.61
349.58	529.09
349.651	501.53
349.722	535.97
349.793	572.71
349.863	508.42
349.934	535.97
350.005	549.75
350.076	535.97
350.146	581.89
350.217	531.38
350.288	568.12
350.358	538.27
350.429	471.69
350.5	540.57
350.57	519.9
350.641	519.9
350.711	595.67
350.782	558.93
350.853	529.09
350.923	549.75
350.994	508.42
351.064	584.19
351.135	570.41
351.205	595.67
351.276	552.05
351.346	568.12
351.417	669.14
351.487	542.86
351.558	519.9
351.628	616.34
351.699	653.07
351.769	561.23
351.84	602.56
351.91	696.7
351.98	593.37
352.051	671.44
352.121	754.1
352.191	623.22
352.262	717.36
352.332	673.74
352.402	735.73
352.473	763.28
352.543	731.14
352.613	790.83
352.683	806.9
352.754	822.98
352.824	749.5
352.894	843.64
352.964	836.75
353.035	818.38
353.105	857.42
353.175	972.22
353.245	937.78
353.315	951.55
353.385	878.08
353.455	1064.06
353.526	979.1
353.596	1070.94
353.666	1109.98
353.736	1142.12
353.806	1149.01
353.876	1215.59
353.946	1256.92
354.016	1314.32
354.086	1376.31
354.156	1433.71
354.226	1468.15
354.296	1498
354.366	1530.15
354.436	1553.11
354.506	1640.36
354.576	1723.01
354.645	1805.67
354.715	1835.52
354.785	1883.73
354.855	1872.25
354.925	2005.42
354.995	2147.77
355.065	2297.01
355.134	2315.38
355.204	2361.3
355.274	2460.03
355.344	2623.05
355.414	2623.05
355.483	2705.7
355.553	2792.95
355.623	2871.02
355.693	3047.81
355.762	3139.65
355.832	3268.23
355.902	3330.22
355.971	3589.67
356.041	3706.76
356.111	3729.72
356.18	3872.08
356.25	3970.8
356.319	4083.31
356.389	4255.51
356.459	4331.28
356.528	4498.89
356.598	4801.96
356.667	4916.76
356.737	4967.27
356.806	5316.27
356.876	5304.79
356.945	5479.28
357.015	5890.27
357.084	5956.85
357.154	6025.73
357.223	6156.61
357.292	6418.35
357.362	6781.12
357.431	6845.41
357.501	7008.43
357.57	7359.72
357.639	7775.29
357.709	7773
357.778	7998.01
357.847	8280.41
357.917	8613.34
357.986	8824.57
358.055	8957.74
358.124	9354.95
358.194	9430.72
358.263	9763.64
358.332	10176.92
358.401	10404.22
358.471	10923.12
358.54	11035.63
358.609	11352.48
358.678	11742.8
358.747	11986.17
358.816	12245.62
358.886	12576.25
358.955	13051.52
359.024	13554.35
359.093	13694.41
359.162	14197.23
359.231	14339.58
359.3	14681.69
359.369	15163.85
359.438	15581.73
359.507	15668.97
359.576	16199.35
359.645	16653.96
359.714	16826.16
359.783	17599.92
359.852	17914.47
359.921	18139.48
359.99	18757.11
360.059	19154.32
360.128	19413.77
360.197	19753.57
360.266	20458.45
360.334	21108.22
360.403	21213.84
360.472	21656.97
360.541	22295.26
360.61	22715.43
360.679	23261.88
360.747	23920.83
360.816	24334.11
360.885	24667.03
360.954	25410.94
361.022	25950.5
361.091	26292.61
361.16	26944.68
361.228	27250.05
361.297	27768.94
361.366	28340.65
361.434	28646.02
361.503	29500.13
361.572	29858.31
361.64	30655.03
361.709	30919.07
361.778	31713.49
361.846	31865.02
361.915	32742.1
361.983	33729.38
362.052	33786.78
362.12	34583.5
362.189	35311.34
362.257	35377.92
362.326	35917.48
362.394	36424.9
362.463	37060.89
362.531	37572.9
362.6	38234.16
362.668	38730.09
362.737	39120.41
362.805	39862.03
362.873	40713.85
362.942	40925.08
363.01	41526.63
363.079	41942.21
363.147	42943.27
363.215	43418.54
363.284	43377.22
363.352	43994.84
363.42	44979.83
363.488	45016.57
363.557	45326.53
363.625	45852.31
363.693	46713.32
363.761	47204.66
363.83	47347.02
363.898	48012.86
363.966	48614.41
364.034	49142.5
364.102	49209.08
364.171	49560.37
364.239	50168.81
364.307	50735.93
364.375	51009.15
364.443	51224.98
364.511	51686.48
364.579	52375.28
364.647	52274.25
364.715	52735.75
364.783	53165.11
364.851	53318.94
364.919	53589.87
364.987	53961.82
365.055	54554.19
365.123	54737.87
365.191	54919.26
365.259	54981.25
365.327	55020.28
365.395	55357.79
365.463	55798.63
365.531	55963.94
365.599	56260.13
365.667	56152.21
365.735	56420.85
365.802	56733.1
365.87	56925.97
365.938	56896.12
366.006	57001.74
366.074	57095.87
366.142	57596.4
366.209	57316.29
366.277	57483.9
366.345	57568.85
366.413	57814.52
366.48	57706.61
366.548	57947.69
366.616	57998.21
366.683	58000.5
366.751	58241.58
366.819	58354.09
366.886	58312.76
366.954	58521.7
367.022	58202.55
367.089	58321.94
367.157	58462
367.224	58638.79
367.292	58544.66
367.36	58560.73
367.427	58643.38
367.495	58611.24
367.562	58406.89
367.63	58597.46
367.697	58422.97
367.765	58574.5
367.832	58576.8
367.9	58739.82
367.967	58533.18
368.034	58611.24
368.102	58402.3
368.169	58420.67
368.237	58659.46
368.304	58602.06
368.371	58282.91
368.439	58305.87
368.506	58177.29
368.573	58282.91
368.641	58214.03
368.708	58195.66
368.775	58188.77
368.843	58087.75
368.91	58002.8
368.977	57688.24
369.044	57894.88
369.112	57869.63
369.179	57662.99
369.246	57770.9
369.313	57458.64
369.38	57286.44
369.448	57369.1
369.515	57187.71
369.582	57224.45
369.649	57146.39
369.716	57077.51
369.783	56866.27
369.85	56730.81
369.917	56560.9
369.984	56420.85
370.052	56372.63
370.119	56326.71
370.186	56492.02
370.253	56407.07
370.32	56053.49
370.387	55895.06
370.454	55844.55
370.521	55647.09
370.587	55651.68
370.654	55479.48
370.721	55376.16
370.788	55024.87
370.855	54802.16
370.922	54992.73
370.989	54760.83
371.056	54666.7
371.123	54074.32
371.189	54122.54
371.256	53736.81
371.323	54014.63
371.39	53665.64
371.457	53622.01
371.523	53204.14
371.59	52969.94
371.657	52967.65
371.724	53100.82
371.79	52783.97
371.857	52855.14
371.924	52664.58
371.991	51874.75
372.057	52161.75
372.124	51948.22
372.191	51996.44
372.257	51227.27
372.324	51254.83
372.39	50873.69
372.457	50841.54
372.524	50846.14
372.59	50522.4
372.657	50095.34
372.723	49992.02
372.79	49636.14
372.856	49992.02
372.923	49406.54
372.989	49459.35
373.056	48894.53
373.122	48472.06
373.189	48536.35
373.255	48104.7
373.322	48247.05
373.388	47707.49
373.454	47537.59
373.521	46752.35
373.587	47161.04
373.654	46947.51
373.72	46630.66
373.786	46623.77
373.853	45790.32
373.919	45636.49
373.985	45494.14
374.052	45161.22
374.118	45372.45
374.184	44506.85
374.25	44722.68
374.317	44375.98
374.383	43788.2
374.449	43356.55
374.515	43253.23
374.581	43094.81
374.648	42509.32
374.714	42155.74
374.78	41866.44
374.846	42084.56
374.912	41492.19
374.978	41290.14
375.044	41122.54
375.11	40904.41
375.177	40748.29
375.243	40112.29
375.309	40015.86
375.375	39577.32
375.441	38950.51
375.507	39285.73
375.573	38732.39
375.639	38606.11
375.705	38222.68
375.771	37770.36
375.837	37386.93
375.903	37483.36
375.968	36987.42
376.034	36576.44
376.1	36316.99
376.166	36117.23
376.232	36523.63
376.298	35889.93
376.364	35237.86
376.43	34755.7
376.495	34549.06
376.561	34450.33
376.627	34367.68
376.693	33789.08
376.759	33272.48
376.824	33215.08
376.89	32902.82
376.956	32673.22
377.022	31989.01
377.087	32214.02
377.153	31982.12
377.219	31591.8
377.284	31587.21
377.35	31203.77
377.416	30958.1
377.481	30677.99
377.547	30262.41
377.613	30149.91
377.678	29180.99
377.744	29155.73
377.809	28841.18
377.875	28411.83
377.94	28544.99
378.006	28267.18
378.071	27840.12
378.137	27789.61
378.202	27247.75
378.268	27199.53
378.333	26933.2
378.399	26572.72
378.464	26097.45
378.53	26634.72
378.595	25714.02
378.661	25787.49
378.726	25548.7
378.791	25107.87
378.857	24954.04
378.922	24853.01
378.987	24499.43
379.053	24513.2
379.118	24228.5
379.183	23985.12
379.249	23682.05
379.314	23454.74
379.379	23268.77
379.444	23167.74
379.51	22811.86
379.575	22591.44
379.64	22446.79
379.705	22003.66
379.771	21870.5
379.836	21312.56
379.901	21252.87
379.966	21183.99
380.031	20972.76
380.096	20924.54
380.161	20543.4
380.227	20582.43
380.292	20580.14
380.357	20396.46
380.422	19914.3
380.487	19728.32
380.552	19553.82
380.617	19443.61
380.682	19172.68
380.747	19248.45
380.812	18901.75
380.877	18626.23
380.942	18442.55
381.007	18454.03
381.072	18254.28
381.137	17983.35
381.202	17813.45
381.266	17657.32
381.331	17448.38
381.396	17007.55
381.461	17009.84
381.526	16846.83
381.591	16617.23
381.656	16490.94
381.72	16169.5
381.785	16220.02
381.85	16304.97
381.915	16190.17
381.979	15776.89
382.044	15809.03
382.109	15646.01
382.174	15354.42
382.238	15384.27
382.303	15067.42
382.368	14987.06
382.432	15092.68
382.497	14663.32
382.562	14502.6
382.626	14509.49
382.691	14135.24
382.756	14252.34
382.82	13862.01
382.885	13992.89
382.949	13643.89
383.014	13625.53
383.078	13313.27
383.143	13159.44
383.208	13467.1
383.272	12929.83
383.337	12860.95
383.401	12755.34
383.465	12950.5
383.53	12493.59
383.594	12573.95
383.659	12319.1
383.723	12087.2
383.788	12087.2
383.852	12144.6
383.916	11655.55
383.981	11754.28
384.045	11531.56
384.109	11678.51
384.174	11699.17
384.238	11448.91
384.302	11219.31
384.367	11079.25
384.431	11083.84
384.495	11058.59
384.56	10684.34
384.624	10505.25
384.688	10776.18
384.752	10539.69
384.816	10383.56
384.881	10147.07
384.945	10048.34
385.009	9816.45
385.073	9802.67
385.137	9784.3
385.201	9855.48
385.265	9524.85
385.33	9579.96
385.394	9531.74
385.458	9449.08
385.522	9253.92
385.586	9175.86
385.65	9212.59
385.714	8863.6
385.778	8969.22
385.842	8939.37
385.906	8923.3
385.97	8735.02
386.034	8404.4
386.098	8397.51
386.162	8411.29
386.226	8296.49
386.29	8142.65
386.354	7940.61
386.417	7846.47
386.481	7867.13
386.545	7864.84
386.609	7713.3
386.673	7644.42
386.737	7653.6
386.8	7520.44
386.864	7327.57
386.928	7334.46
386.992	7355.12
387.056	7217.36
387.119	7058.94
387.183	7049.75
387.247	7157.67
387.31	7013.02
387.374	6847.7
387.438	6689.28
387.502	6675.5
387.565	6455.09
387.629	6606.62
387.692	6491.82
387.756	6285.18
387.82	6273.7
387.883	6273.7
387.947	6271.41
388.01	6131.35
388.074	6014.25
388.138	5933.89
388.201	5897.16
388.265	5846.64
388.328	6014.25
388.392	5667.56
388.455	5685.92
388.519	5658.37
388.582	5578.01
388.645	5506.84
388.709	5465.51
388.772	5474.69
388.836	5309.38
388.899	5339.23
388.962	5173.91
389.026	5162.43
389.089	5116.51
389.153	5102.74
389.216	5054.52
389.279	4994.83
389.343	4863.95
389.406	5020.08
389.469	4838.7
389.532	4820.33
389.596	4707.82
389.659	4705.53
389.722	4590.73
389.785	4528.74
389.848	4469.04
389.912	4498.89
389.975	4356.53
390.038	4432.3
390.101	4354.24
390.164	4402.45
390.227	4358.83
390.291	4292.25
390.354	4191.22
390.417	4143.01
390.48	4117.75
390.543	4048.87
390.606	4025.91
390.669	3975.4
390.732	3931.77
390.795	3874.37
390.858	3849.12
390.921	3897.33
390.984	3775.64
391.047	3706.76
391.11	3619.52
391.173	3688.4
391.236	3598.85
391.299	3555.23
391.362	3539.16
391.424	3582.78
391.487	3479.46
391.55	3435.83
391.613	3380.73
391.676	3438.13
391.739	3325.63
391.802	3403.69
391.864	3316.44
391.927	3220.01
391.99	3282
392.053	3238.38
392.115	3259.04
392.178	3210.83
392.241	3240.67
392.304	3034.03
392.366	3047.81
392.429	2944.49
392.492	2923.82
392.554	2880.2
392.617	2933.01
392.68	2949.08
392.742	2928.42
392.805	2818.21
392.867	2799.84
392.93	2795.25
392.992	2866.42
393.055	2760.81
393.118	2792.95
393.18	2733.26
393.243	2685.04
393.305	2678.15
393.368	2643.71
393.43	2577.13
393.493	2501.36
393.555	2505.95
393.618	2482.99
393.68	2595.5
393.742	2501.36
393.805	2538.1
393.867	2554.17
393.93	2437.07
393.992	2340.64
394.054	2354.41
394.117	2345.23
394.179	2283.24
394.241	2322.27
394.304	2228.13
394.366	2276.35
394.428	2354.41
394.49	2244.21
394.553	2182.21
394.615	2138.59
394.677	2209.77
394.739	2124.81
394.802	2065.12
394.864	2184.51
394.926	2150.07
394.988	2101.85
395.05	2221.25
395.112	2090.37
395.174	1957.2
395.237	2007.72
395.299	2049.05
395.361	1998.53
395.423	1968.68
395.485	1892.92
395.547	1987.05
395.609	1915.88
395.671	1835.52
395.733	1840.11
395.795	1833.22
395.857	1853.88
395.919	1904.4
395.981	1778.12
396.043	1807.96
396.105	1807.96
396.167	1736.79
396.229	1840.11
396.291	1766.64
396.352	1755.16
396.414	1663.32
396.476	1723.01
396.538	1752.86
396.6	1711.53
396.662	1667.91
396.724	1631.17
396.785	1642.65
396.847	1681.68
396.909	1596.73
396.971	1615.1
397.032	1569.18
397.094	1617.4
397.156	1498
397.218	1589.84
397.279	1571.48
397.341	1525.55
397.403	1452.08
397.464	1475.04
397.526	1456.67
397.588	1502.59
397.649	1511.78
397.711	1488.82
397.772	1454.38
397.834	1413.05
397.896	1431.42
397.957	1399.27
398.019	1351.06
398.08	1344.17
398.142	1392.39
398.203	1328.1
398.265	1371.72
398.326	1378.61
398.388	1339.58
398.449	1440.6
398.511	1330.39
398.572	1321.21
398.633	1222.48
398.695	1305.14
398.756	1231.67
398.818	1227.07
398.879	1263.81
398.94	1263.81
399.002	1277.59
399.063	1236.26
399.124	1128.35
399.186	1215.59
399.247	1201.82
399.308	1139.83
399.369	1137.53
399.431	1181.15
399.492	1165.08
399.553	1107.68
399.614	1231.67
399.676	1126.05
399.737	1114.57
399.798	1070.94
399.859	1082.42
399.92	1130.64
399.981	1100.79
400.042	1155.9
400.104	1109.98
400.165	1089.31
400.226	1171.97
400.287	1034.21
400.348	1034.21
400.409	1038.8
400.47	1068.65
400.531	1050.28
400.592	1050.28
400.653	990.58
400.714	1015.84
400.775	1013.54
400.836	999.77
400.897	958.44
400.958	951.55
401.019	976.81
401.08	935.48
401.141	924
401.201	949.26
401.262	985.99
401.323	949.26
401.384	946.96
401.445	944.66
401.506	884.97
401.567	940.07
401.627	903.34
401.688	864.3
401.749	859.71
401.81	963.03
401.87	917.11
401.931	921.7
401.992	896.45
402.053	963.03
402.113	882.67
402.174	864.3
402.235	871.19
402.295	825.27
402.356	933.18
402.417	868.9
402.477	818.38
402.538	864.3
402.598	813.79
402.659	898.74
402.719	857.42
402.78	841.34
402.841	763.28
402.901	958.44
402.962	804.61
403.022	765.58
403.083	825.27
403.143	758.69
403.204	806.9
403.264	788.54
403.324	820.68
403.385	827.57
403.445	793.13
403.506	767.87
403.566	781.65
403.627	825.27
403.687	740.32
403.747	839.05
403.808	806.9
403.868	813.79
403.928	790.83
403.989	715.06
404.049	756.39
404.109	763.28
404.169	760.98
404.23	781.65
404.29	818.38
404.35	765.58
404.41	731.14
404.47	689.81
404.531	795.42
404.591	726.54
404.651	733.43
404.711	659.96
404.771	694.4
404.831	733.43
404.892	744.91
404.952	740.32
405.012	643.89
405.072	756.39
405.132	698.99
405.192	689.81
405.252	765.58
405.312	671.44
405.372	650.78
405.432	653.07
405.492	735.73
405.552	682.92
405.612	708.18
405.672	593.37
405.732	676.03
405.792	671.44
405.852	586.49
405.912	648.48
405.971	604.86
406.031	673.74
406.091	630.11
406.151	653.07
406.211	669.14
406.271	698.99
406.33	715.06
406.39	646.18
406.45	657.66
406.51	653.07
406.57	634.7
406.629	653.07
406.689	678.33
406.749	618.63
406.808	616.34
406.868	639.3
406.928	579.6
406.988	620.93
407.047	659.96
407.107	698.99
407.166	637
407.226	616.34
407.286	632.41
407.345	529.09
407.405	607.15
407.464	586.49
407.524	575.01
407.584	602.56
407.643	604.86
407.703	639.3
407.762	556.64
407.822	623.22
407.881	581.89
407.941	620.93
408	595.67
408.059	535.97
408.119	542.86
408.178	545.16
408.238	637
408.297	556.64
408.356	563.53
408.416	597.97
408.475	595.67
408.535	577.3
408.594	540.57
408.653	604.86
408.712	561.23
408.772	570.41
408.831	533.68
408.89	529.09
408.95	524.49
409.009	597.97
409.068	561.23
409.127	515.31
409.186	522.2
409.246	616.34
409.305	524.49
409.364	487.76
409.423	556.64
409.482	620.93
409.541	570.41
409.6	602.56
409.66	552.05
409.719	627.82
409.778	618.63
409.837	492.35
409.896	540.57
409.955	533.68
410.014	485.46
410.073	531.38
410.132	540.57
410.191	492.35
410.25	597.97
410.309	542.86
410.368	593.37
410.427	588.78
410.486	540.57
410.545	542.86
410.603	570.41
410.662	558.93
410.721	519.9
410.78	565.82
410.839	542.86
410.898	478.57
410.957	519.9
411.015	508.42
411.074	467.09
411.133	565.82
411.192	519.9
411.25	499.24
411.309	453.32
411.368	533.68
411.427	494.65
411.485	517.61
411.544	494.65
411.603	494.65
411.661	487.76
411.72	469.39
411.779	522.2
411.837	519.9
411.896	496.94
411.955	496.94
412.013	455.61
412.072	473.98
412.13	485.46
412.189	501.53
412.247	460.21
412.306	526.79
412.364	430.36
412.423	496.94
412.481	485.46
412.54	473.98
412.598	457.91
412.657	446.43
412.715	455.61
412.774	451.02
412.832	476.28
412.891	469.39
412.949	453.32
413.007	513.01
413.066	542.86
413.124	519.9
413.182	478.57
413.241	485.46
413.299	515.31
413.357	473.98
413.416	503.83
413.474	460.21
413.532	473.98
413.59	492.35
413.649	480.87
413.707	506.13
413.765	492.35
413.823	499.24
413.881	448.73
413.94	425.77
413.998	441.84
414.056	476.28
414.114	462.5
414.172	464.8
414.23	453.32
414.288	506.13
414.347	542.86
414.405	558.93
414.463	485.46
414.521	513.01
414.579	519.9
414.637	455.61
414.695	469.39
414.753	441.84
414.811	460.21
414.869	490.05
414.927	434.95
414.985	483.17
415.043	414.29
415.101	496.94
415.158	476.28
415.216	485.46
415.274	535.97
415.332	478.57
415.39	441.84
415.448	409.69
415.506	437.25
415.563	444.13
415.621	455.61
415.679	437.25
415.737	467.09
415.795	448.73
415.852	407.4
415.91	499.24
415.968	513.01
416.026	418.88
416.083	428.06
416.141	398.21
416.199	453.32
416.256	519.9
416.314	425.77
416.372	416.58
416.429	425.77
416.487	467.09
416.544	425.77
416.602	411.99
416.66	476.28
416.717	448.73
416.775	418.88
416.832	425.77
416.89	469.39
416.947	487.76
417.005	437.25
417.062	453.32
417.12	485.46
417.177	510.72
417.235	469.39
417.292	485.46
417.35	467.09
417.407	455.61
417.464	476.28
417.522	460.21
417.579	395.92
417.637	496.94
417.694	439.54
417.751	455.61
417.809	451.02
417.866	409.69
417.923	386.73
417.981	418.88
418.038	462.5
418.095	455.61
418.152	402.81
418.21	418.88
418.267	485.46
418.324	425.77
418.381	402.81
418.438	460.21
418.496	434.95
418.553	478.57
418.61	471.69
418.667	437.25
418.724	368.37
418.781	457.91
418.838	455.61
418.895	457.91
418.952	457.91
419.01	382.14
419.067	405.1
419.124	462.5
419.181	473.98
419.238	437.25
419.295	393.62
419.352	437.25
419.409	407.4
419.466	393.62
419.523	370.66
419.579	492.35
419.636	370.66
419.693	439.54
419.75	441.84
419.807	402.81
419.864	352.29
419.921	448.73
419.978	460.21
420.034	372.96
420.091	432.65
420.148	411.99
420.205	487.76
420.262	496.94
420.318	421.17
420.375	455.61
420.432	469.39
420.489	464.8
420.545	409.69
420.602	478.57
420.659	430.36
420.715	405.1
420.772	503.83
420.829	430.36
420.885	382.14
420.942	391.33
420.999	501.53
421.055	428.06
421.112	437.25
421.168	448.73
421.225	421.17
421.282	366.07
421.338	448.73
421.395	421.17
421.451	446.43
421.508	478.57
421.564	460.21
421.621	391.33
421.677	423.47
421.734	434.95
421.79	441.84
421.846	432.65
421.903	425.77
421.959	372.96
422.016	421.17
422.072	441.84
422.128	400.51
422.185	434.95
422.241	389.03
422.297	414.29
422.354	441.84
422.41	407.4
422.466	407.4
422.523	444.13
422.579	395.92
422.635	451.02
422.691	407.4
422.748	402.81
422.804	384.44
422.86	451.02
422.916	395.92
422.972	407.4
423.029	446.43
423.085	359.18
423.141	414.29
423.197	446.43
423.253	402.81
423.309	407.4
423.365	395.92
423.421	455.61
423.477	407.4
423.533	391.33
423.589	389.03
423.645	377.55
423.701	425.77
423.757	425.77
423.813	480.87
423.869	407.4
423.925	414.29
423.981	402.81
424.037	411.99
424.093	370.66
424.149	430.36
424.205	437.25
424.261	437.25
424.317	395.92
424.373	343.11
424.428	478.57
424.484	448.73
424.54	453.32
424.596	400.51
424.652	361.48
424.708	359.18
424.763	345.41
424.819	393.62
424.875	444.13
424.931	393.62
424.986	423.47
425.042	508.42
425.098	350
425.153	471.69
425.209	317.85
425.265	372.96
425.32	416.58
425.376	432.65
425.432	361.48
425.487	411.99
425.543	393.62
425.598	411.99
425.654	437.25
425.709	448.73
425.765	386.73
425.82	400.51
425.876	418.88
425.932	453.32
425.987	359.18
426.042	418.88
426.098	398.21
426.153	389.03
426.209	485.46
426.264	377.55
426.32	375.25
426.375	471.69
426.43	402.81
426.486	391.33
426.541	340.81
426.597	473.98
426.652	347.7
426.707	400.51
426.763	411.99
426.818	437.25
426.873	453.32
426.928	414.29
426.984	476.28
427.039	377.55
427.094	407.4
427.149	416.58
427.205	418.88
427.26	368.37
427.315	432.65
427.37	425.77
427.425	370.66
427.48	444.13
427.536	428.06
427.591	418.88
427.646	421.17
427.701	379.85
427.756	407.4
427.811	434.95
427.866	324.74
427.921	391.33
427.976	407.4
428.031	398.21
428.086	439.54
428.141	366.07
428.196	379.85
428.251	416.58
428.306	407.4
428.361	382.14
428.416	437.25
428.471	444.13
428.526	416.58
428.581	411.99
428.636	444.13
428.691	416.58
428.745	439.54
428.8	421.17
428.855	437.25
428.91	393.62
428.965	457.91
429.02	418.88
429.074	441.84
429.129	402.81
429.184	414.29
429.239	395.92
429.293	370.66
429.348	473.98
429.403	395.92
429.457	400.51
429.512	391.33
429.567	375.25
429.621	467.09
429.676	423.47
429.731	421.17
429.785	370.66
429.84	395.92
429.895	368.37
429.949	377.55
430.004	345.41
430.058	402.81
430.113	432.65
430.167	460.21
430.222	386.73
430.276	384.44
430.331	423.47
430.385	418.88
430.44	377.55
430.494	363.77
430.549	446.43
430.603	395.92
430.657	393.62
430.712	359.18
430.766	439.54
430.821	324.74
430.875	428.06
430.929	441.84
430.984	418.88
431.038	414.29
431.092	411.99
431.147	352.29
431.201	418.88
431.255	375.25
431.309	386.73
431.364	428.06
431.418	467.09
431.472	375.25
431.526	386.73
431.581	391.33
431.635	366.07
431.689	437.25
431.743	460.21
431.797	432.65
431.851	434.95
431.906	382.14
431.96	430.36
432.014	437.25
432.068	400.51
432.122	329.33
432.176	384.44
432.23	437.25
432.284	439.54
432.338	411.99
432.392	428.06
432.446	414.29
432.5	407.4
432.554	377.55
432.608	395.92
432.662	375.25
432.716	400.51
432.77	379.85
432.824	386.73
432.878	400.51
432.931	345.41
432.985	338.52
433.039	421.17
433.093	382.14
433.147	384.44
433.201	329.33
433.254	405.1
433.308	340.81
433.362	416.58
433.416	432.65
433.47	386.73
433.523	359.18
433.577	432.65
433.631	421.17
433.684	391.33
433.738	372.96
433.792	423.47
433.846	409.69
433.899	418.88
433.953	389.03
434.006	448.73
434.06	432.65
434.114	320.15
434.167	320.15
434.221	320.15
