Data from FLMS155811_14-55-58-833.txt Node
Date: Tue May 12 14:55:58 MDT 2026
User: ecestudent
Spectrometer: FLMS15581
Trigger mode: 0
Integration Time (sec): 3.000000E-2
Scans to average: 200
Electric dark correction enabled: true
Nonlinearity correction enabled: false
Boxcar width: 0
XAxis mode: Wavelengths
Number of Pixels in Spectrum: 2048
>>>>>Begin Spectral Data<<<<<
298.026	-101.77
298.106	-101.77
298.185	-101.77
298.265	-129.87
298.344	-129.89
298.424	-123.51
298.503	-115.96
298.583	-108
298.662	-89.69
298.741	-72.26
298.821	-51.88
298.9	-39.9
298.98	-20.59
299.059	3.49
299.138	23.23
299.217	48.65
299.297	70.09
299.376	91.63
299.455	109.06
299.535	127.34
299.614	148.29
299.693	168.74
299.772	187.25
299.852	207.67
299.931	239.17
300.01	247.82
300.089	265.08
300.168	280.11
300.247	293.97
300.327	300.3
300.406	310.23
300.485	319.13
300.564	329.7
300.643	332.45
300.722	345.01
300.801	345.4
300.88	346.87
300.959	353.5
301.038	359.99
301.117	354.25
301.196	363.27
301.275	361.22
301.354	360.56
301.433	363.67
301.512	361.11
301.591	359.3
301.67	359.49
301.749	362.88
301.828	357.22
301.907	353.9
301.985	355.35
302.064	349.86
302.143	350.99
302.222	354.16
302.301	346.75
302.38	344.34
302.458	348.16
302.537	343.7
302.616	343.57
302.695	337.1
302.773	340.18
302.852	335.73
302.931	336.67
303.01	334.95
303.088	334
303.167	336.19
303.246	336.19
303.324	333.17
303.403	331.63
303.481	329.66
303.56	332.93
303.639	335.89
303.717	332.48
303.796	331.96
303.874	336.96
303.953	332.48
304.032	328.54
304.11	332.79
304.189	331.13
304.267	329.22
304.346	332.38
304.424	335.7
304.502	334.5
304.581	332.77
304.659	334.44
304.738	333.97
304.816	333.71
304.895	333.93
304.973	335.9
305.051	341.89
305.13	336.56
305.208	334.44
305.286	333.96
305.365	336.81
305.443	337.44
305.521	337.44
305.6	339.68
305.678	337.1
305.756	337.46
305.834	332.61
305.913	344.44
305.991	338.35
306.069	341.07
306.147	336.94
306.225	341
306.304	339.35
306.382	347.69
306.46	347.18
306.538	345.89
306.616	342.25
306.694	340.06
306.772	342.55
306.85	346.29
306.929	346.34
307.007	346.66
307.085	348.97
307.163	348.47
307.241	347.97
307.319	346.9
307.397	342.58
307.475	347.63
307.553	343.91
307.631	345.68
307.709	350.79
307.786	345.81
307.864	353.17
307.942	347.83
308.02	348.44
308.098	351.3
308.176	350.21
308.254	355.72
308.332	348.53
308.409	350.16
308.487	346.18
308.565	348.55
308.643	353.87
308.721	349.15
308.798	350.26
308.876	352.27
308.954	355.37
309.032	348.14
309.109	353.41
309.187	350.98
309.265	353.67
309.342	355.69
309.42	351.11
309.498	349.16
309.575	355.44
309.653	356.7
309.731	355.91
309.808	355.18
309.886	354.03
309.963	355.88
310.041	356.58
310.119	355.12
310.196	358.02
310.274	352.87
310.351	359.95
310.429	357.08
310.506	360.11
310.584	355.38
310.661	355.99
310.738	359.4
310.816	360.16
310.893	360.27
310.971	359.37
311.048	356.81
311.126	356.45
311.203	355.31
311.28	355.51
311.358	358.35
311.435	356.59
311.512	361.08
311.59	362.73
311.667	359.26
311.744	357.32
311.821	364.09
311.899	355.64
311.976	359.47
312.053	359.7
312.13	366.71
312.208	361.08
312.285	360.97
312.362	361.93
312.439	361.27
312.516	360.88
312.593	362.48
312.671	368.65
312.748	359.99
312.825	362.73
312.902	367.28
312.979	360.96
313.056	364.54
313.133	362.75
313.21	364.48
313.287	366.12
313.364	362.98
313.441	366.01
313.518	363.82
313.595	361.98
313.672	365.88
313.749	366.62
313.826	368.77
313.903	366.92
313.98	363.01
314.057	368.95
314.134	364.93
314.211	370.3
314.287	365.5
314.364	367.14
314.441	369.24
314.518	368.32
314.595	362.15
314.672	364.8
314.748	370.57
314.825	366.74
314.902	366.28
314.979	366.43
315.055	366.09
315.132	370.18
315.209	370.87
315.286	371.46
315.362	373.49
315.439	374.25
315.516	364.18
315.592	371.11
315.669	375.98
315.746	370.64
315.822	374.42
315.899	374.07
315.975	374.85
316.052	373.83
316.128	369.86
316.205	369.95
316.282	372.79
316.358	368.45
316.435	379.46
316.511	377.02
316.588	369.18
316.664	377.33
316.741	375.9
316.817	370.32
316.893	370.63
316.97	368.52
317.046	371.35
317.123	375.3
317.199	372.55
317.275	376.37
317.352	371.89
317.428	369.69
317.504	370.43
317.581	376.33
317.657	380.02
317.733	370.56
317.81	378
317.886	374.56
317.962	377.65
318.038	379.15
318.115	374.52
318.191	370.79
318.267	375.03
318.343	373.73
318.419	375.49
318.496	376.67
318.572	375.67
318.648	373.36
318.724	379.18
318.8	375.91
318.876	375.59
318.952	375.96
319.028	376.55
319.105	376.53
319.181	374.65
319.257	371.64
319.333	374.57
319.409	377.36
319.485	378.69
319.561	377.14
319.637	377.3
319.713	380.58
319.789	374.46
319.865	379.82
319.94	379.72
320.016	381.56
320.092	375.08
320.168	377.1
320.244	380.94
320.32	378.94
320.396	379.42
320.472	382.13
320.547	378.47
320.623	380.8
320.699	378.01
320.775	377.3
320.851	382.99
320.926	382.6
321.002	378.11
321.078	378.81
321.154	381.23
321.229	381.8
321.305	378.87
321.381	380.32
321.456	377.88
321.532	380.61
321.608	381.65
321.683	381.96
321.759	378.48
321.835	383.8
321.91	380.97
321.986	382.53
322.061	381.89
322.137	381.43
322.212	380.8
322.288	386.57
322.364	384.08
322.439	385.84
322.515	385.42
322.59	385.15
322.666	389.96
322.741	387.88
322.816	381.2
322.892	384.86
322.967	386.4
323.043	382.98
323.118	384.93
323.193	385.12
323.269	383.54
323.344	380.94
323.42	386.1
323.495	381.74
323.57	384.72
323.646	384.2
323.721	385.01
323.796	386.35
323.871	386.24
323.947	383.82
324.022	382.13
324.097	385.69
324.172	384.18
324.248	386.77
324.323	387.55
324.398	394.03
324.473	384.37
324.548	384.26
324.623	385.81
324.699	388.88
324.774	390.73
324.849	385.73
324.924	385.03
324.999	385.89
325.074	389.95
325.149	385.6
325.224	391.8
325.299	419.91
325.374	393.75
325.449	387.68
325.524	389.81
325.599	384.42
325.674	385.51
325.749	392.64
325.824	393.89
325.899	386.14
325.974	387.36
326.049	389.01
326.124	393.57
326.199	392.26
326.273	390.43
326.348	390.58
326.423	392.38
326.498	390.9
326.573	389.84
326.648	391.86
326.722	391.56
326.797	387.22
326.872	390.9
326.947	390.71
327.021	393.49
327.096	387.8
327.171	388.37
327.245	389.41
327.32	389.5
327.395	391.86
327.47	386.08
327.544	390.77
327.619	392.09
327.693	397.4
327.768	390.19
327.843	393.82
327.917	387.75
327.992	389.77
328.066	390.97
328.141	392.65
328.215	392.65
328.29	390.68
328.364	393.06
328.439	390.89
328.513	397.12
328.588	398.1
328.662	390.68
328.737	391.92
328.811	392.82
328.886	396.85
328.96	390.36
329.035	390.43
329.109	397.18
329.183	397.46
329.258	398.24
329.332	397.5
329.406	395.97
329.481	393.66
329.555	390.65
329.629	398.55
329.704	397.66
329.778	398.94
329.852	392.19
329.926	393.66
330.001	393.26
330.075	398.48
330.149	401.35
330.223	393.8
330.297	396.98
330.372	400.11
330.446	398.86
330.52	397.95
330.594	395.44
330.668	396.63
330.742	396.51
330.816	397.69
330.89	395.55
330.964	393.51
331.038	399.89
331.113	395.68
331.187	395.56
331.261	394.78
331.335	399.72
331.409	402.51
331.483	399.11
331.557	399.47
331.63	401.35
331.704	397.89
331.778	401.29
331.852	400.89
331.926	394.55
332	399.57
332.074	396.67
332.148	396.3
332.222	395.86
332.295	398.67
332.369	399.18
332.443	402.03
332.517	400.3
332.591	402.98
332.665	401.34
332.738	397.38
332.812	396.48
332.886	404.47
332.959	402.69
333.033	395.93
333.107	401.79
333.181	403.34
333.254	402.45
333.328	401.87
333.402	397.65
333.475	402.62
333.549	402.61
333.622	402.42
333.696	408.78
333.77	399.34
333.843	406.42
333.917	399.86
333.99	410.26
334.064	404.31
334.137	404.97
334.211	401.28
334.284	402.85
334.358	407.43
334.431	403.04
334.505	401.33
334.578	406.19
334.652	400.88
334.725	408.2
334.799	403.13
334.872	403.01
334.945	407.59
335.019	402.7
335.092	405.8
335.165	405.09
335.239	403.48
335.312	401.75
335.385	402.36
335.459	407.18
335.532	407.09
335.605	412.69
335.678	416.97
335.752	405.71
335.825	407.01
335.898	405
335.971	413.52
336.045	412.07
336.118	405.07
336.191	406.23
336.264	411.1
336.337	409.91
336.41	402.11
336.483	412.24
336.557	405.3
336.63	404.13
336.703	413.91
336.776	410.34
336.849	415.92
336.922	410.79
336.995	415.69
337.068	407.33
337.141	405.3
337.214	409.9
337.287	409.18
337.36	408.71
337.433	410.42
337.506	408.4
337.579	415.99
337.652	413.08
337.725	410.82
337.797	407.23
337.87	417.95
337.943	410.59
338.016	411.34
338.089	407.84
338.162	411.12
338.235	412.24
338.307	415.42
338.38	415.13
338.453	413.68
338.526	413.23
338.598	415.94
338.671	410.02
338.744	412.89
338.817	415.16
338.889	415.7
338.962	412.49
339.035	415.77
339.107	415.6
339.18	413.14
339.253	411.99
339.325	420.43
339.398	414.92
339.47	415.25
339.543	413.37
339.616	418.67
339.688	419.81
339.761	417.89
339.833	419.58
339.906	417.35
339.978	415.06
340.051	418.8
340.123	415.52
340.196	422.52
340.268	422.31
340.341	422.44
340.413	418.99
340.485	418.78
340.558	420.77
340.63	425.02
340.703	420.2
340.775	419.67
340.847	420.87
340.92	422.7
340.992	417.93
341.064	424.25
341.137	420.66
341.209	423.76
341.281	425.99
341.354	420.97
341.426	423.05
341.498	425.35
341.57	422.29
341.643	425.17
341.715	421.73
341.787	423.66
341.859	422.67
341.931	423.25
342.003	424.77
342.076	427.42
342.148	425.09
342.22	424.95
342.292	423.86
342.364	427.97
342.436	426.3
342.508	428.84
342.58	424.55
342.652	420.13
342.724	434.42
342.796	427.74
342.868	431.43
342.94	429.34
343.012	433.67
343.084	428.49
343.156	428.03
343.228	426.31
343.3	426.34
343.372	433.88
343.444	433.53
343.516	430.58
343.588	432.67
343.66	430.06
343.731	435.04
343.803	428.32
343.875	437.06
343.947	433.59
344.019	431.96
344.09	435.57
344.162	432.5
344.234	432.48
344.306	437.59
344.377	435.07
344.449	435.78
344.521	438.59
344.593	438.4
344.664	435.09
344.736	434.65
344.808	435.9
344.879	433.7
344.951	439.77
345.023	438.09
345.094	439.16
345.166	433.96
345.237	438.76
345.309	443.16
345.38	443.94
345.452	439.96
345.524	441.83
345.595	446.47
345.667	445.4
345.738	446.42
345.81	443.31
345.881	444.2
345.953	446.48
346.024	443.5
346.095	449.06
346.167	448.18
346.238	450.13
346.31	449.2
346.381	450.28
346.452	447.2
346.524	446.45
346.595	450.93
346.666	451.57
346.738	450.63
346.809	451.56
346.88	451.74
346.952	449.13
347.023	449.88
347.094	447.99
347.165	452.79
347.237	451.41
347.308	453.96
347.379	452.32
347.45	457.68
347.521	457.95
347.593	450.25
347.664	459.65
347.735	457.11
347.806	456.52
347.877	457.13
347.948	457.79
348.019	461.34
348.09	461.34
348.161	466.63
348.233	462.47
348.304	471.09
348.375	461.34
348.446	461.7
348.517	462.29
348.588	464.35
348.659	466.59
348.73	465.32
348.801	469.46
348.871	470.31
348.942	475.44
349.013	472.9
349.084	472.66
349.155	472.22
349.226	475.19
349.297	474.02
349.368	481.22
349.439	483.09
349.509	481.48
349.58	480.99
349.651	484.72
349.722	483.54
349.793	482.46
349.863	484.88
349.934	481.4
350.005	488.21
350.076	487.31
350.146	490.93
350.217	492.63
350.288	490.12
350.358	497.46
350.429	497.04
350.5	497.31
350.57	501.74
350.641	505.54
350.711	504.88
350.782	503.34
350.853	511.98
350.923	512.58
350.994	516.16
351.064	517.4
351.135	515.45
351.205	520.55
351.276	525.7
351.346	530.83
351.417	534.16
351.487	536.18
351.558	538.51
351.628	549.45
351.699	549.52
351.769	557.48
351.84	561.63
351.91	567.51
351.98	576.91
352.051	583.57
352.121	584.32
352.191	598.88
352.262	597.61
352.332	611.62
352.402	622.55
352.473	627.16
352.543	639.81
352.613	655.48
352.683	659.91
352.754	675.89
352.824	689.52
352.894	702.35
352.964	716.51
353.035	733.24
353.105	745.84
353.175	764.7
353.245	785.8
353.315	802.41
353.385	827.76
353.455	840.05
353.526	863.44
353.596	894.39
353.666	903.93
353.736	933.27
353.806	958.38
353.876	990.54
353.946	1018.99
354.016	1053.11
354.086	1078.45
354.156	1110.36
354.226	1151.39
354.296	1182.38
354.366	1217.93
354.436	1258.05
354.506	1296.62
354.576	1334.76
354.645	1384.98
354.715	1435.41
354.785	1485.62
354.855	1551.42
354.925	1575.64
354.995	1635.82
355.065	1693.13
355.134	1733.32
355.204	1784.01
355.274	1863.16
355.344	1946.53
355.414	2014.1
355.483	2077.57
355.553	2150.59
355.623	2221.78
355.693	2319.02
355.762	2424.34
355.832	2499.17
355.902	2566.91
355.971	2644.28
356.041	2724.2
356.111	2819.78
356.18	2913.69
356.25	3068.38
356.319	3167.15
356.389	3265.68
356.459	3368.62
356.528	3519.39
356.598	3620.48
356.667	3732.56
356.737	3869.37
356.806	3992.35
356.876	4108.18
356.945	4257.31
357.015	4419.62
357.084	4535.84
357.154	4682.82
357.223	4829.84
357.292	4978.96
357.362	5139.88
357.431	5295.96
357.501	5568.12
357.57	5706.52
357.639	5893.89
357.709	6152.64
357.778	6345.42
357.847	6537.54
357.917	6769.93
357.986	7008.99
358.055	7203.55
358.124	7381.78
358.194	7650.6
358.263	7973.3
358.332	8289.47
358.401	8442.71
358.471	8642.12
358.54	8983.25
358.609	9196.93
358.678	9453.14
358.747	9721.08
358.816	9986.48
358.886	10400.82
358.955	10579.77
359.024	11000.34
359.093	11177.44
359.162	11552.9
359.231	11929.14
359.3	12308.78
359.369	12636.88
359.438	13110.68
359.507	13340.73
359.576	13531.79
359.645	13934.21
359.714	14335.83
359.783	14854.13
359.852	15232.97
359.921	15573.95
359.99	15901.8
360.059	16484.94
360.128	17040.91
360.197	17304.84
360.266	17661.39
360.334	18092.5
360.403	18253.52
360.472	18741.86
360.541	19278.45
360.61	19987.38
360.679	20596.11
360.747	21005.98
360.816	21305.61
360.885	21897.51
360.954	22449.26
361.022	22853.25
361.091	23205.63
361.16	23817.65
361.228	24356.15
361.297	24795.48
361.366	25352.81
361.434	25902.31
361.503	27016.22
361.572	27870.04
361.64	28123.21
361.709	29025.24
361.778	29097.9
361.846	29404.76
361.915	30207.72
361.983	30571.28
362.052	31136.51
362.12	32025.08
362.189	32421.02
362.257	33256.47
362.326	33777.58
362.394	34622.63
362.463	35824.6
362.531	35645.33
362.6	35756.02
362.668	36632.2
362.737	36891.91
362.805	38274.57
362.873	38555.9
362.942	39763.77
363.01	40262.29
363.079	40242.64
363.147	40544.62
363.215	41338.33
363.284	41906.69
363.352	42932.08
363.42	43651.4
363.488	43763.74
363.557	44611.54
363.625	45413.09
363.693	45114.36
363.761	45320.06
363.83	45661.06
363.898	46454.11
363.966	47519.2
364.034	48559.69
364.102	48724.5
364.171	49580.99
364.239	49598.41
364.307	50501.06
364.375	50408.74
364.443	50689.74
364.511	51451.82
364.579	51506.77
364.647	51683.01
364.715	52932.72
364.783	53150.04
364.851	53202.37
364.919	53370.55
364.987	53664.94
365.055	53766.94
365.123	54043.69
365.191	54342.6
365.259	54251.38
365.327	54820.97
365.395	55275.95
365.463	54962.08
365.531	55106.78
365.599	55337.52
365.667	55974.69
365.735	56361.73
365.802	56293.3
365.87	56142.97
365.938	56232.97
366.006	56342.63
366.074	56894.32
366.142	57002.35
366.209	56171.21
366.277	56448.17
366.345	56529.24
366.413	56914.41
366.48	57146.44
366.548	57262.11
366.616	57688.46
366.683	57372.98
366.751	56976.56
366.819	57161.44
366.886	57137.09
366.954	57664.63
367.022	56976.24
367.089	57089.21
367.157	57253.34
367.224	57108.47
367.292	57218.87
367.36	57164.19
367.427	57275.1
367.495	57370.83
367.562	57177.59
367.63	56849.71
367.697	56426.63
367.765	56577.52
367.832	56849.91
367.9	56910.56
367.967	56713
368.034	56414.14
368.102	56756.18
368.169	56843.35
368.237	56599.56
368.304	56489.52
368.371	56397.57
368.439	56770.16
368.506	56399.33
368.573	56673.12
368.641	56942.47
368.708	56905.6
368.775	56803.4
368.843	56796.58
368.91	56742.07
368.977	56172.25
369.044	56091.84
369.112	55987.79
369.179	56048.08
369.246	56099.17
369.313	56143.35
369.38	55599.5
369.448	55326.46
369.515	55601.9
369.582	55390.15
369.649	54443.71
369.716	54509.87
369.783	54235.41
369.85	54005.89
369.917	53673.66
369.984	53549.07
370.052	53988.97
370.119	53479.21
370.186	53664.3
370.253	53291.48
370.32	53517.2
370.387	53627.35
370.454	53131.06
370.521	52953.78
370.587	52281.05
370.654	52352.87
370.721	52048.63
370.788	52259.09
370.855	51247.05
370.922	51300.02
370.989	50923.78
371.056	50954.19
371.123	50830.59
371.189	50109.97
371.256	49780.72
371.323	48620.99
371.39	48226.8
371.457	48457.18
371.523	48454.06
371.59	48745.72
371.657	49296.12
371.724	49225.65
371.79	48150.29
371.857	47820.1
371.924	47741.2
371.991	46368.18
372.057	45682.58
372.124	46069.24
372.191	46102.54
372.257	45847.55
372.324	45907.02
372.39	45083.69
372.457	44779.85
372.524	44355.38
372.59	44007.44
372.657	43557.51
372.723	43436.48
372.79	43551.98
372.856	42863.37
372.923	42491.72
372.989	42468.33
373.056	42076.05
373.122	41587.8
373.189	41510.73
373.255	41580.92
373.322	40853.32
373.388	40558.99
373.454	40721.39
373.521	39493.13
373.587	39438.44
373.654	39612.77
373.72	39705.9
373.786	38422.72
373.853	37906.46
373.919	37539.42
373.985	37510.48
374.052	38014.5
374.118	37821.02
374.184	37112.98
374.25	36686.99
374.317	36757.6
374.383	36554.56
374.449	36051.13
374.515	34978.81
374.581	34823.87
374.648	34745.21
374.714	34686.37
374.78	34180.2
374.846	34296.5
374.912	34133.69
374.978	33548.36
375.044	33387.5
375.11	32575.19
375.177	32734.75
375.243	32424.41
375.309	31852.64
375.375	31352.5
375.441	30914.51
375.507	30976.96
375.573	31555.34
375.639	30500.54
375.705	30189.47
375.771	30243.1
375.837	29780.24
375.903	29342.49
375.968	28719.02
376.034	28395.76
376.1	28454.28
376.166	28161.53
376.232	27989.35
376.298	27832.91
376.364	27428.3
376.43	26880.83
376.495	26821.49
376.561	26537.93
376.627	26402.21
376.693	25971.22
376.759	26209.66
376.824	25912.84
376.89	25801.95
376.956	25329.34
377.022	25571.7
377.087	25360.61
377.153	25235.72
377.219	24648.09
377.284	24334.87
377.35	24370.16
377.416	24235.01
377.481	24097.2
377.547	23601.76
377.613	23130.16
377.678	22993.21
377.744	22950.82
377.809	22642.46
377.875	22570.61
377.94	22224.94
378.006	22194.23
378.071	21776.69
378.137	21562.43
378.202	21314.85
378.268	21063.52
378.333	20905.35
378.399	20665.34
378.464	20494.18
378.53	20083.88
378.595	19828.25
378.661	20205.26
378.726	20172.99
378.791	19621.36
378.857	19252.83
378.922	19030.55
378.987	18913.28
379.053	18667.14
379.118	18795.82
379.183	18554.09
379.249	18547.99
379.314	18208.55
379.379	18034.52
379.444	17816.87
379.51	17853.51
379.575	17606.14
379.64	17324.85
379.705	17100.73
379.771	17109.43
379.836	16775.32
379.901	16595.23
379.966	16618.58
380.031	16687.38
380.096	16356.23
380.161	16028.14
380.227	15835.55
380.292	15732.57
380.357	15773.8
380.422	15539.79
380.487	15352.01
380.552	15280.57
380.617	15327.01
380.682	15162.39
380.747	14931.59
380.812	14669.9
380.877	14338.9
380.942	14304.11
381.007	14442.55
381.072	14451.02
381.137	14186.13
381.202	14024.81
381.266	13746.27
381.331	13713.59
381.396	13689.67
381.461	13569.69
381.526	13321.57
381.591	13150.64
381.656	13056.79
381.72	12887.6
381.785	12898.44
381.85	12911.59
381.915	12606.37
381.979	12423.59
382.044	12351.44
382.109	12209.93
382.174	12132.26
382.238	12017.48
382.303	11933.79
382.368	11919.27
382.432	11801.83
382.497	11598.21
382.562	11554.72
382.626	11650.41
382.691	11289
382.756	11103.15
382.82	11159.98
382.885	11180.05
382.949	11009.13
383.014	10859.05
383.078	10790.33
383.143	10683.42
383.208	10351.34
383.272	10223.12
383.337	10146.1
383.401	10027.25
383.465	9840.39
383.53	9763.93
383.594	9825.96
383.659	9713.01
383.723	9693.22
383.788	9537.47
383.852	9363.71
383.916	9355.59
383.981	9353.81
384.045	9291.44
384.109	9166.06
384.174	9022.5
384.238	8840.21
384.302	8721.67
384.367	8710.21
384.431	8615.81
384.495	8515.7
384.56	8362.5
384.624	8332.88
384.688	8352.02
384.752	8129.6
384.816	7982.92
384.881	7860.57
384.945	7823.4
385.009	7685.66
385.073	7633.1
385.137	7541.46
385.201	7531.69
385.265	7480.29
385.33	7387.31
385.394	7309.34
385.458	7167.62
385.522	7097.08
385.586	7065.83
385.65	7010.01
385.714	6816.56
385.778	6725.66
385.842	6710.28
385.906	6690.59
385.97	6549.29
386.034	6414.35
386.098	6363.43
386.162	6311
386.226	6269.89
386.29	6119.7
386.354	6087.88
386.417	6005.16
386.481	5941.86
386.545	5772.61
386.609	5793.47
386.673	5713.24
386.737	5647.85
386.8	5520.15
386.864	5417.36
386.928	5450.61
386.992	5364.87
387.056	5328.54
387.119	5309.55
387.183	5213.56
387.247	5135.51
387.31	5071.13
387.374	5025.77
387.438	4913.11
387.502	4932.51
387.565	4861.81
387.629	4808.08
387.692	4736.31
387.756	4657.31
387.82	4600.69
387.883	4529.07
387.947	4459.01
388.01	4464.24
388.074	4417.48
388.138	4355.78
388.201	4259.83
388.265	4183.64
388.328	4158.08
388.392	4089.1
388.455	4056.41
388.519	4052.97
388.582	4037.84
388.645	4029.91
388.709	3984.17
388.772	3987.31
388.836	3851.24
388.899	3784.84
388.962	3751.06
389.026	3720.48
389.089	3753.27
389.153	3727.46
389.216	3730.4
389.279	3680.41
389.343	3599.47
389.406	3609.35
389.469	3547.33
389.532	3495.99
389.596	3430.14
389.659	3401.86
389.722	3404.32
389.785	3342.09
389.848	3350.24
389.912	3309.58
389.975	3279.03
390.038	3239.29
390.101	3216.33
390.164	3185.63
390.227	3178.42
390.291	3147.15
390.354	3103.88
390.417	3083.86
390.48	3046.36
390.543	3051.61
390.606	3005.43
390.669	2933.34
390.732	2962.73
390.795	2918.14
390.858	2906.81
390.921	2884.22
390.984	2854.9
391.047	2850.72
391.11	2800.63
391.173	2755.44
391.236	2732.91
391.299	2758.27
391.362	2751.57
391.424	2704.09
391.487	2678.05
391.55	2686.76
391.613	2623.71
391.676	2599.61
391.739	2564.05
391.802	2538.96
391.864	2557.53
391.927	2516.14
391.99	2488.57
392.053	2514.41
392.115	2507.49
392.178	2490.6
392.241	2445.56
392.304	2426.71
392.366	2403.91
392.429	2366.42
392.492	2343.41
392.554	2316.14
392.617	2299.82
392.68	2274.19
392.742	2236.71
392.805	2210.97
392.867	2213.65
392.93	2182.32
392.992	2203.07
393.055	2160.07
393.118	2131.26
393.18	2092.31
393.243	2107.54
393.305	2090.42
393.368	2091.03
393.43	2043.6
393.493	2035.24
393.555	2012.41
393.618	1988.18
393.68	1998.73
393.742	1982.14
393.805	1989.64
393.867	1913.26
393.93	1924.45
393.992	1895.79
394.054	1853.76
394.117	1827.19
394.179	1830.87
394.241	1835.68
394.304	1826.86
394.366	1801.19
394.428	1765.85
394.49	1764.98
394.553	1763.17
394.615	1760.39
394.677	1710.58
394.739	1687.82
394.802	1679.03
394.864	1659.38
394.926	1667.31
394.988	1650.94
395.05	1642.74
395.112	1634.1
395.174	1625.74
395.237	1604.27
395.299	1582.58
395.361	1584
395.423	1571.81
395.485	1533.68
395.547	1512.66
395.609	1505.96
395.671	1500.93
395.733	1471.91
395.795	1473.13
395.857	1482.9
395.919	1464.3
395.981	1442.89
396.043	1425.03
396.105	1416.01
396.167	1413.61
396.229	1408
396.291	1397.44
396.352	1376.03
396.414	1353.76
396.476	1340.44
396.538	1325.86
396.6	1322.92
396.662	1322.11
396.724	1316.3
396.785	1319.08
396.847	1299.92
396.909	1292.33
396.971	1285.88
397.032	1257.69
397.094	1240.23
397.156	1240.58
397.218	1222.43
397.279	1211.98
397.341	1217.73
397.403	1220.91
397.464	1194.15
397.526	1177.5
397.588	1180.73
397.649	1168.99
397.711	1164.55
397.772	1168.08
397.834	1157.82
397.896	1130.55
397.957	1124.72
398.019	1129.57
398.08	1120.9
398.142	1110.89
398.203	1117.25
398.265	1103.5
398.326	1094.85
398.388	1092.21
398.449	1078.45
398.511	1058.11
398.572	1058.59
398.633	1062.42
398.695	1056.39
398.756	1036.76
398.818	1028.07
398.879	1021.24
398.94	1032.49
399.002	1011.55
399.063	1005.85
399.124	1001.06
399.186	1006.33
399.247	997.98
399.308	991.08
399.369	970.61
399.431	950.51
399.492	954.62
399.553	952.27
399.614	944.2
399.676	951.79
399.737	941.39
399.798	936.65
399.859	929.51
399.92	921.57
399.981	921.3
400.042	915.16
400.104	907.72
400.165	895.28
400.226	892.71
400.287	890.92
400.348	886.77
400.409	878.86
400.47	885.18
400.531	869.74
400.592	867.22
400.653	858.46
400.714	851.48
400.775	857.36
400.836	862.77
400.897	856.94
400.958	857.88
401.019	848.42
401.08	836.12
401.141	828.15
401.201	821.57
401.262	821.13
401.323	817.82
401.384	818.13
401.445	812.44
401.506	819.94
401.567	805.34
401.627	804.1
401.688	805.4
401.749	806.01
401.81	797.84
401.87	784.82
401.931	789.23
401.992	783.77
402.053	777.36
402.113	767.4
402.174	769.77
402.235	767.36
402.295	766.32
402.356	759.65
402.417	764.03
402.477	757.85
402.538	755.83
402.598	747.76
402.659	744.59
402.719	735.05
402.78	734.55
402.841	729.46
402.901	733.11
402.962	733.73
403.022	727.58
403.083	732.86
403.143	726.45
403.204	723.23
403.264	705.1
403.324	699.95
403.385	705.15
403.445	708.14
403.506	710.93
403.566	704.35
403.627	692.66
403.687	695.93
403.747	694.72
403.808	686.39
403.868	683.67
403.928	686.42
403.989	686.88
404.049	676.35
404.109	672.37
404.169	665.38
404.23	666.38
404.29	662.8
404.35	660.83
404.41	659.34
404.47	661.18
404.531	651.39
404.591	648.6
404.651	686.74
404.711	652.23
404.771	640.89
404.831	636.51
404.892	636.16
404.952	642.02
405.012	631.36
405.072	626.57
405.132	624.99
405.192	629.7
405.252	653.93
405.312	623.14
405.372	631.94
405.432	618.04
405.492	621.24
405.552	614.53
405.612	611.95
405.672	612.53
405.732	610.93
405.792	607
405.852	608.68
405.912	605.66
405.971	607.1
406.031	597.05
406.091	598.99
406.151	593.26
406.211	596.77
406.271	592.23
406.33	582.45
406.39	583.8
406.45	581.77
406.51	582.8
406.57	579.39
406.629	578.19
406.689	574.86
406.749	569.35
406.808	575.83
406.868	574.04
406.928	570.12
406.988	569.19
407.047	563.6
407.107	563.88
407.166	558.19
407.226	555.37
407.286	550.74
407.345	556.54
407.405	559.68
407.464	558.19
407.524	555.35
407.584	555.3
407.643	550.76
407.703	544.68
407.762	549.44
407.822	546.96
407.881	548.17
407.941	543.14
408	544.26
408.059	542.14
408.119	541.66
408.178	533.32
408.238	535
408.297	534.38
408.356	534.6
408.416	530.61
408.475	528.95
408.535	531.35
408.594	525.33
408.653	526.93
408.712	523.92
408.772	521.96
408.831	518.17
408.89	518.32
408.95	519.96
409.009	517.29
409.068	513.02
409.127	511.28
409.186	508.84
409.246	506.74
409.305	509.61
409.364	510.09
409.423	510.23
409.482	504.42
409.541	502.87
409.6	502.73
409.66	502.97
409.719	503.28
409.778	501
409.837	500.74
409.896	493.02
409.955	496.46
410.014	496.89
410.073	497.15
410.132	498.75
410.191	492.79
410.25	493.45
410.309	492.36
410.368	488.93
410.427	490.22
410.486	487.21
410.545	486.76
410.603	486.54
410.662	488.21
410.721	483.6
410.78	483.42
410.839	478.61
410.898	480.42
410.957	479.31
411.015	477.63
411.074	479.94
411.133	476.62
411.192	476.23
411.25	476.36
411.309	472.9
411.368	468.54
411.427	473.56
411.485	468.51
411.544	473.71
411.603	473.18
411.661	466.75
411.72	471.34
411.779	476.36
411.837	465.02
411.896	468.84
411.955	465.68
412.013	459.65
412.072	467.9
412.13	464.5
412.189	461.48
412.247	459.13
412.306	458.04
412.364	458.46
412.423	460.53
412.481	464.25
412.54	460.39
412.598	452.61
412.657	454.58
412.715	449.85
412.774	456.38
412.832	449.42
412.891	454.53
412.949	458.2
413.007	455.11
413.066	453.95
413.124	451.45
413.182	449.67
413.241	452.75
413.299	447.35
413.357	446.64
413.416	445.32
413.474	444.69
413.532	450.86
413.59	444.06
413.649	444.22
413.707	441.59
413.765	442.88
413.823	443.06
413.881	442.78
413.94	441.17
413.998	440.67
414.056	438.36
414.114	441.43
414.172	432.07
414.23	443.24
414.288	442.67
414.347	440.14
414.405	438.21
414.463	437.89
414.521	435.84
414.579	438.61
414.637	434.17
414.695	431.22
414.753	427.56
414.811	437.02
414.869	431.46
414.927	432.37
414.985	431.44
415.043	432.84
415.101	428.56
415.158	433.25
415.216	430.49
415.274	431
415.332	430.21
415.39	430.68
415.448	425.85
415.506	430.67
415.563	424.48
415.621	423.02
415.679	424.55
415.737	428.98
415.795	423.6
415.852	427.59
415.91	423.45
415.968	421.61
416.026	426.1
416.083	422.9
416.141	425.66
416.199	420.93
416.256	421.06
416.314	422.87
416.372	422.35
416.429	417.23
416.487	426.74
416.544	416.55
416.602	421.6
416.66	420.36
416.717	415.33
416.775	417.41
416.832	420.26
416.89	422.07
416.947	423.76
417.005	415.87
417.062	414.68
417.12	414.39
417.177	408.11
417.235	417.28
417.292	411.03
417.35	410.66
417.407	414.83
417.464	411.67
417.522	409.86
417.579	414.21
417.637	416.46
417.694	412.54
417.751	413.36
417.809	412.3
417.866	406.7
417.923	409.93
417.981	412.98
418.038	410.74
418.095	407.85
418.152	408.63
418.21	409.13
418.267	407.68
418.324	406.32
418.381	407.88
418.438	404.92
418.496	401.3
418.553	403.74
418.61	403.06
418.667	407.61
418.724	402.35
418.781	405.24
418.838	406.27
418.895	399.49
418.952	404.14
419.01	399.5
419.067	404.14
419.124	406.56
419.181	405.3
419.238	401.46
419.295	401.98
419.352	402.96
419.409	399.38
419.466	404.35
419.523	404.77
419.579	401.14
419.636	400.27
419.693	396.91
419.75	399.81
419.807	404.17
419.864	406.09
419.921	404.45
419.978	398.71
420.034	399.78
420.091	403.54
420.148	401.17
420.205	397.69
420.262	402.12
420.318	396.64
420.375	394.37
420.432	395.17
420.489	395.01
420.545	395.66
420.602	397.43
420.659	397.04
420.715	395.92
420.772	394.63
420.829	399.09
420.885	393.24
420.942	398.78
420.999	396.36
421.055	392.09
421.112	385.52
421.168	394.2
421.225	391.95
421.282	394.31
421.338	396.55
421.395	392.73
421.451	392.54
421.508	403.4
421.564	390.73
421.621	390.99
421.677	392.67
421.734	391.19
421.79	389.72
421.846	393.75
421.903	394.21
421.959	389.98
422.016	388.78
422.072	387.24
422.128	389.98
422.185	386.79
422.241	389.93
422.297	392.37
422.354	390.19
422.41	390.27
422.466	389.7
422.523	390.5
422.579	386.98
422.635	387.81
422.691	388.37
422.748	387.3
422.804	387.7
422.86	395.13
422.916	390.15
422.972	384.72
423.029	385.39
423.085	389.28
423.141	389.46
423.197	385.58
423.253	387.78
423.309	388.12
423.365	382.65
423.421	388.24
423.477	385.61
423.533	385.43
423.589	387.1
423.645	387.15
423.701	387.85
423.757	383.35
423.813	387.5
423.869	388.04
423.925	383.48
423.981	384.05
424.037	379.18
424.093	385.09
424.149	381.57
424.205	383.73
424.261	389.05
424.317	384.7
424.373	383.44
424.428	383.41
424.484	382.75
424.54	381.62
424.596	384.89
424.652	379.04
424.708	380.5
424.763	382.83
424.819	381.37
424.875	380.17
424.931	380.62
424.986	378.85
425.042	384.34
425.098	379.74
425.153	382.48
425.209	376.44
425.265	383.59
425.32	380.11
425.376	380.01
425.432	378.17
425.487	380.92
425.543	376.99
425.598	380.8
425.654	374.41
425.709	374.84
425.765	379.74
425.82	382.22
425.876	375.34
425.932	378.34
425.987	376.41
426.042	382.98
426.098	381.05
426.153	377.03
426.209	375.65
426.264	375.52
426.32	378.33
426.375	378.81
426.43	377.3
426.486	374.69
426.541	380.15
426.597	373.61
426.652	376.77
426.707	373.46
426.763	376.64
426.818	376.58
426.873	377.91
426.928	376.74
426.984	380.33
427.039	372.95
427.094	372.97
427.149	378.77
427.205	372.82
427.26	376.17
427.315	374.38
427.37	374.13
427.425	375.24
427.48	378.13
427.536	370.81
427.591	375.05
427.646	378.6
427.701	377.06
427.756	377.16
427.811	375.54
427.866	371.89
427.921	376.68
427.976	371.1
428.031	371.89
428.086	374.03
428.141	377.39
428.196	377.01
428.251	373.49
428.306	376.86
428.361	371.03
428.416	371.41
428.471	372.53
428.526	369.38
428.581	374.75
428.636	370.58
428.691	373.76
428.745	367.83
428.8	375.13
428.855	373.11
428.91	366.71
428.965	373.19
429.02	372.39
429.074	370.04
429.129	370.8
429.184	373.75
429.239	370.25
429.293	370.35
429.348	376.01
429.403	375.71
429.457	370.4
429.512	372.82
429.567	370.19
429.621	370.42
429.676	371.23
429.731	373.4
429.785	370.7
429.84	375.85
429.895	369.4
429.949	374.76
430.004	372.29
430.058	371.36
430.113	371.36
430.167	372.81
430.222	368.98
430.276	367.91
430.331	370.85
430.385	370.15
430.44	374.54
430.494	369.37
430.549	368.13
430.603	374.15
430.657	372.57
430.712	368.94
430.766	368.03
430.821	375.14
430.875	370.31
430.929	370.08
430.984	372.57
431.038	370.54
431.092	369.29
431.147	369.17
431.201	369.38
431.255	366.91
431.309	371.83
431.364	366.79
431.418	365.08
431.472	368.93
431.526	367.07
431.581	371.7
431.635	368.64
431.689	369.73
431.743	371.05
431.797	369.31
431.851	365
431.906	369.99
431.96	366.98
432.014	366.92
432.068	367.37
432.122	368.69
432.176	366.65
432.23	365.8
432.284	369.02
432.338	363.57
432.392	366.98
432.446	365.37
432.5	368.16
432.554	362.52
432.608	366.11
432.662	365.72
432.716	367.04
432.77	364.14
432.824	367.67
432.878	364.35
432.931	365.41
432.985	362.35
433.039	362.47
433.093	362.82
433.147	366.36
433.201	365.44
433.254	362.21
433.308	361.58
433.362	365.75
433.416	368.4
433.47	360.92
433.523	364.69
433.577	364.61
433.631	360.88
433.684	364.97
433.738	365.04
433.792	362.42
433.846	367.28
433.899	363.72
433.953	360.39
434.006	362.35
434.06	360.84
434.114	363.57
434.167	363.57
434.221	363.57
