Data from FLMS155811_13-11-56-477.txt Node
Date: Wed Mar 25 13:11:56 MDT 2020
User: ECEn Student
Spectrometer: FLMS15581
Trigger mode: 0
Integration Time (sec): 1.000000E-1
Scans to average: 1
Electric dark correction enabled: true
Nonlinearity correction enabled: false
Boxcar width: 0
XAxis mode: Wavelengths
Number of Pixels in Spectrum: 2048
>>>>>Begin Spectral Data<<<<<
298.026	-28.41
298.106	-28.41
298.185	-28.41
298.265	-60.56
298.344	-21.53
298.424	-104.18
298.503	-88.11
298.583	-26.12
298.662	-69.74
298.741	-67.45
298.821	-81.22
298.9	-33.01
298.98	-28.41
299.059	-0.86
299.138	70.32
299.217	58.84
299.297	-10.05
299.376	28.99
299.455	84.09
299.535	125.42
299.614	141.49
299.693	120.83
299.772	178.23
299.852	178.23
299.931	231.04
300.01	293.03
300.089	247.11
300.168	205.78
300.247	315.99
300.327	274.66
300.406	254
300.485	309.1
300.564	325.17
300.643	334.36
300.722	359.61
300.801	373.39
300.88	318.28
300.959	329.76
301.038	315.99
301.117	274.66
301.196	350.43
301.275	341.24
301.354	442.27
301.433	380.28
301.512	309.1
301.591	343.54
301.67	361.91
301.749	467.52
301.828	394.05
301.907	387.16
301.985	412.42
302.064	380.28
302.143	382.57
302.222	382.57
302.301	384.87
302.38	400.94
302.458	394.05
302.537	382.57
302.616	373.39
302.695	373.39
302.773	345.84
302.852	313.69
302.931	419.31
303.01	387.16
303.088	364.2
303.167	368.8
303.246	421.6
303.324	359.61
303.403	334.36
303.481	387.16
303.56	348.13
303.639	286.14
303.717	315.99
303.796	357.32
303.874	394.05
303.953	377.98
304.032	366.5
304.11	325.17
304.189	313.69
304.267	368.8
304.346	398.64
304.424	322.88
304.502	398.64
304.581	348.13
304.659	352.72
304.738	357.32
304.816	375.68
304.895	439.97
304.973	327.47
305.051	357.32
305.13	377.98
305.208	355.02
305.286	355.02
305.365	350.43
305.443	387.16
305.521	371.09
305.6	400.94
305.678	377.98
305.756	389.46
305.834	394.05
305.913	398.64
305.991	382.57
306.069	417.01
306.147	407.83
306.225	423.9
306.304	384.87
306.382	341.24
306.46	458.34
306.538	371.09
306.616	293.03
306.694	322.88
306.772	306.8
306.85	364.2
306.929	325.17
307.007	350.43
307.085	371.09
307.163	338.95
307.241	410.12
307.319	338.95
307.397	371.09
307.475	380.28
307.553	387.16
307.631	433.08
307.709	437.68
307.786	329.76
307.864	389.46
307.942	357.32
308.02	384.87
308.098	350.43
308.176	290.73
308.254	384.87
308.332	391.76
308.409	355.02
308.487	389.46
308.565	368.8
308.643	322.88
308.721	350.43
308.798	355.02
308.876	357.32
308.954	384.87
309.032	366.5
309.109	348.13
309.187	355.02
309.265	281.55
309.342	332.06
309.42	318.28
309.498	391.76
309.575	332.06
309.653	359.61
309.731	325.17
309.808	387.16
309.886	368.8
309.963	371.09
310.041	329.76
310.119	398.64
310.196	384.87
310.274	348.13
310.351	366.5
310.429	405.53
310.506	357.32
310.584	382.57
310.661	391.76
310.738	341.24
310.816	352.72
310.893	451.45
310.971	405.53
311.048	364.2
311.126	361.91
311.203	398.64
311.28	334.36
311.358	403.24
311.435	355.02
311.512	361.91
311.59	407.83
311.667	315.99
311.744	364.2
311.821	405.53
311.899	302.21
311.976	389.46
312.053	329.76
312.13	382.57
312.208	389.46
312.285	396.35
312.362	412.42
312.439	364.2
312.516	382.57
312.593	384.87
312.671	361.91
312.748	428.49
312.825	396.35
312.902	396.35
312.979	327.47
313.056	311.4
313.133	400.94
313.21	352.72
313.287	449.16
313.364	382.57
313.441	428.49
313.518	396.35
313.595	366.5
313.672	428.49
313.749	382.57
313.826	396.35
313.903	361.91
313.98	410.12
314.057	469.82
314.134	309.1
314.211	366.5
314.287	352.72
314.364	382.57
314.441	371.09
314.518	373.39
314.595	423.9
314.672	380.28
314.748	382.57
314.825	430.79
314.902	345.84
314.979	407.83
315.055	398.64
315.132	446.86
315.209	327.47
315.286	433.08
315.362	389.46
315.439	375.68
315.516	327.47
315.592	382.57
315.669	380.28
315.746	380.28
315.822	400.94
315.899	377.98
315.975	396.35
316.052	407.83
316.128	403.24
316.205	364.2
316.282	375.68
316.358	371.09
316.435	389.46
316.511	437.68
316.588	373.39
316.664	410.12
316.741	338.95
316.817	371.09
316.893	419.31
316.97	350.43
317.046	474.41
317.123	368.8
317.199	348.13
317.275	345.84
317.352	375.68
317.428	318.28
317.504	371.09
317.581	423.9
317.657	442.27
317.733	364.2
317.81	456.04
317.886	403.24
317.962	412.42
318.038	412.42
318.115	410.12
318.191	377.98
318.267	410.12
318.343	446.86
318.419	368.8
318.496	400.94
318.572	407.83
318.648	382.57
318.724	355.02
318.8	329.76
318.876	419.31
318.952	389.46
319.028	419.31
319.105	341.24
319.181	419.31
319.257	391.76
319.333	384.87
319.409	345.84
319.485	348.13
319.561	345.84
319.637	387.16
319.713	396.35
319.789	469.82
319.865	437.68
319.94	405.53
320.016	334.36
320.092	426.2
320.168	426.2
320.244	400.94
320.32	366.5
320.396	380.28
320.472	348.13
320.547	306.8
320.623	336.65
320.699	387.16
320.775	430.79
320.851	391.76
320.926	398.64
321.002	400.94
321.078	361.91
321.154	359.61
321.229	414.72
321.305	403.24
321.381	373.39
321.456	394.05
321.532	412.42
321.608	389.46
321.683	350.43
321.759	364.2
321.835	350.43
321.91	391.76
321.986	412.42
322.061	508.85
322.137	433.08
322.212	449.16
322.288	391.76
322.364	355.02
322.439	394.05
322.515	315.99
322.59	423.9
322.666	442.27
322.741	345.84
322.816	322.88
322.892	421.6
322.967	338.95
323.043	394.05
323.118	345.84
323.193	407.83
323.269	355.02
323.344	410.12
323.42	368.8
323.495	368.8
323.57	384.87
323.646	396.35
323.721	368.8
323.796	439.97
323.871	453.75
323.947	391.76
324.022	366.5
324.097	417.01
324.172	419.31
324.248	375.68
324.323	456.04
324.398	410.12
324.473	371.09
324.548	391.76
324.623	396.35
324.699	437.68
324.774	359.61
324.849	384.87
324.924	414.72
324.999	389.46
325.074	451.45
325.149	384.87
325.224	350.43
325.299	426.2
325.374	481.3
325.449	407.83
325.524	423.9
325.599	430.79
325.674	435.38
325.749	352.72
325.824	426.2
325.899	389.46
325.974	336.65
326.049	352.72
326.124	412.42
326.199	435.38
326.273	375.68
326.348	391.76
326.423	384.87
326.498	410.12
326.573	357.32
326.648	387.16
326.722	456.04
326.797	327.47
326.872	332.06
326.947	414.72
327.021	394.05
327.096	414.72
327.171	423.9
327.245	375.68
327.32	389.46
327.395	442.27
327.47	412.42
327.544	481.3
327.619	364.2
327.693	380.28
327.768	366.5
327.843	391.76
327.917	430.79
327.992	396.35
328.066	394.05
328.141	377.98
328.215	377.98
328.29	355.02
328.364	417.01
328.439	405.53
328.513	398.64
328.588	375.68
328.662	405.53
328.737	426.2
328.811	343.54
328.886	389.46
328.96	442.27
329.035	389.46
329.109	417.01
329.183	417.01
329.258	357.32
329.332	412.42
329.406	485.89
329.481	398.64
329.555	384.87
329.629	400.94
329.704	405.53
329.778	428.49
329.852	361.91
329.926	405.53
330.001	469.82
330.075	361.91
330.149	446.86
330.223	384.87
330.297	380.28
330.372	389.46
330.446	375.68
330.52	387.16
330.594	387.16
330.668	325.17
330.742	417.01
330.816	396.35
330.89	467.52
330.964	394.05
331.038	449.16
331.113	357.32
331.187	417.01
331.261	433.08
331.335	423.9
331.409	405.53
331.483	428.49
331.557	426.2
331.63	430.79
331.704	417.01
331.778	375.68
331.852	419.31
331.926	398.64
332	419.31
332.074	417.01
332.148	423.9
332.222	433.08
332.295	412.42
332.369	396.35
332.443	426.2
332.517	394.05
332.591	412.42
332.665	410.12
332.738	462.93
332.812	403.24
332.886	382.57
332.959	483.6
333.033	414.72
333.107	384.87
333.181	359.61
333.254	364.2
333.328	437.68
333.402	366.5
333.475	368.8
333.549	352.72
333.622	387.16
333.696	391.76
333.77	451.45
333.843	375.68
333.917	384.87
333.99	426.2
334.064	396.35
334.137	389.46
334.211	419.31
334.284	382.57
334.358	375.68
334.431	417.01
334.505	407.83
334.578	446.86
334.652	391.76
334.725	359.61
334.799	375.68
334.872	384.87
334.945	433.08
335.019	355.02
335.092	384.87
335.165	419.31
335.239	400.94
335.312	366.5
335.385	332.06
335.459	456.04
335.532	368.8
335.605	377.98
335.678	428.49
335.752	476.71
335.825	391.76
335.898	421.6
335.971	384.87
336.045	391.76
336.118	400.94
336.191	433.08
336.264	410.12
336.337	405.53
336.41	405.53
336.483	368.8
336.557	435.38
336.63	396.35
336.703	398.64
336.776	348.13
336.849	444.56
336.922	371.09
336.995	421.6
337.068	371.09
337.141	437.68
337.214	426.2
337.287	380.28
337.36	465.23
337.433	458.34
337.506	359.61
337.579	426.2
337.652	417.01
337.725	396.35
337.797	355.02
337.87	334.36
337.943	394.05
338.016	407.83
338.089	421.6
338.162	359.61
338.235	398.64
338.307	377.98
338.38	439.97
338.453	322.88
338.526	371.09
338.598	444.56
338.671	453.75
338.744	428.49
338.817	421.6
338.889	435.38
338.962	371.09
339.035	430.79
339.107	387.16
339.18	437.68
339.253	439.97
339.325	426.2
339.398	419.31
339.47	407.83
339.543	382.57
339.616	437.68
339.688	476.71
339.761	410.12
339.833	435.38
339.906	355.02
339.978	355.02
340.051	414.72
340.123	396.35
340.196	384.87
340.268	414.72
340.341	446.86
340.413	384.87
340.485	435.38
340.558	382.57
340.63	389.46
340.703	387.16
340.775	410.12
340.847	426.2
340.92	451.45
340.992	462.93
341.064	458.34
341.137	419.31
341.209	380.28
341.281	449.16
341.354	371.09
341.426	364.2
341.498	405.53
341.57	435.38
341.643	368.8
341.715	458.34
341.787	414.72
341.859	398.64
341.931	348.13
342.003	426.2
342.076	396.35
342.148	417.01
342.22	384.87
342.292	414.72
342.364	389.46
342.436	417.01
342.508	435.38
342.58	437.68
342.652	430.79
342.724	366.5
342.796	472.12
342.868	398.64
342.94	364.2
343.012	437.68
343.084	391.76
343.156	398.64
343.228	449.16
343.3	446.86
343.372	387.16
343.444	442.27
343.516	426.2
343.588	433.08
343.66	433.08
343.731	394.05
343.803	357.32
343.875	417.01
343.947	472.12
344.019	412.42
344.09	479
344.162	400.94
344.234	421.6
344.306	403.24
344.377	410.12
344.449	394.05
344.521	396.35
344.593	456.04
344.664	382.57
344.736	391.76
344.808	414.72
344.879	472.12
344.951	423.9
345.023	391.76
345.094	373.39
345.166	398.64
345.237	481.3
345.309	384.87
345.38	391.76
345.452	377.98
345.524	384.87
345.595	371.09
345.667	460.64
345.738	382.57
345.81	334.36
345.881	382.57
345.953	398.64
346.024	361.91
346.095	437.68
346.167	426.2
346.238	396.35
346.31	439.97
346.381	357.32
346.452	373.39
346.524	357.32
346.595	467.52
346.666	437.68
346.738	350.43
346.809	419.31
346.88	359.61
346.952	446.86
347.023	405.53
347.094	389.46
347.165	391.76
347.237	398.64
347.308	433.08
347.379	352.72
347.45	430.79
347.521	419.31
347.593	407.83
347.664	398.64
347.735	490.49
347.806	414.72
347.877	433.08
347.948	403.24
348.019	412.42
348.09	453.75
348.161	417.01
348.233	398.64
348.304	428.49
348.375	405.53
348.446	430.79
348.517	449.16
348.588	338.95
348.659	451.45
348.73	435.38
348.801	405.53
348.871	405.53
348.942	391.76
349.013	430.79
349.084	476.71
349.155	407.83
349.226	412.42
349.297	465.23
349.368	396.35
349.439	396.35
349.509	412.42
349.58	400.94
349.651	423.9
349.722	366.5
349.793	384.87
349.863	465.23
349.934	479
350.005	421.6
350.076	433.08
350.146	410.12
350.217	400.94
350.288	403.24
350.358	355.02
350.429	472.12
350.5	382.57
350.57	419.31
350.641	483.6
350.711	400.94
350.782	417.01
350.853	442.27
350.923	433.08
350.994	446.86
351.064	488.19
351.135	449.16
351.205	407.83
351.276	426.2
351.346	460.64
351.417	394.05
351.487	456.04
351.558	462.93
351.628	394.05
351.699	421.6
351.769	460.64
351.84	419.31
351.91	389.46
351.98	465.23
352.051	442.27
352.121	426.2
352.191	391.76
352.262	435.38
352.332	465.23
352.402	430.79
352.473	421.6
352.543	446.86
352.613	444.56
352.683	410.12
352.754	474.41
352.824	442.27
352.894	501.97
352.964	485.89
353.035	465.23
353.105	433.08
353.175	389.46
353.245	460.64
353.315	460.64
353.385	524.93
353.455	439.97
353.526	476.71
353.596	495.08
353.666	417.01
353.736	444.56
353.806	469.82
353.876	465.23
353.946	451.45
354.016	485.89
354.086	563.96
354.156	559.37
354.226	524.93
354.296	545.59
354.366	479
354.436	481.3
354.506	543.29
354.576	495.08
354.645	568.55
354.715	504.26
354.785	495.08
354.855	545.59
354.925	534.11
354.995	593.81
355.065	547.89
355.134	593.81
355.204	522.63
355.274	605.29
355.344	520.33
355.414	529.52
355.483	625.95
355.553	557.07
355.623	612.17
355.693	602.99
355.762	621.36
355.832	655.8
355.902	685.65
355.971	625.95
356.041	681.05
356.111	648.91
356.18	642.02
356.25	749.93
356.319	775.19
356.389	788.97
356.459	740.75
356.528	763.71
356.598	832.59
356.667	899.17
356.737	791.26
356.806	800.45
356.876	931.32
356.945	929.02
357.015	970.35
357.084	931.32
357.154	968.06
357.223	1027.75
357.292	912.95
357.362	988.72
357.431	1069.08
357.501	1110.41
357.57	1039.23
357.639	1160.92
357.709	1126.48
357.778	1248.17
357.847	1209.14
357.917	1252.76
357.986	1289.5
358.055	1379.04
358.124	1342.3
358.194	1360.67
358.263	1399.7
358.332	1376.74
358.401	1542.06
358.471	1555.83
358.54	1542.06
358.609	1666.04
358.678	1654.56
358.747	1737.22
358.816	1803.8
358.886	1861.2
358.955	1799.21
359.024	1863.5
359.093	2019.63
359.162	2042.59
359.231	2187.24
359.3	2311.22
359.369	2210.2
359.438	2256.12
359.507	2267.6
359.576	2386.99
359.645	2508.68
359.714	2618.89
359.783	2683.17
359.852	2761.24
359.921	2889.81
359.99	2970.18
360.059	2988.54
360.128	3075.79
360.197	3261.77
360.266	3450.04
360.334	3576.32
360.403	3626.83
360.472	3734.75
360.541	3948.28
360.61	4024.04
360.679	4352.37
360.747	4405.18
360.816	4501.61
360.885	4726.62
360.954	4967.7
361.022	5172.05
361.091	5181.23
361.16	5307.51
361.228	5755.23
361.297	5755.23
361.366	6014.68
361.434	6372.86
361.503	6595.57
361.572	6710.37
361.64	6889.46
361.709	7256.83
361.778	7610.41
361.846	7833.12
361.915	8409.42
361.983	8599.99
362.052	8825
362.12	9337.01
362.189	9580.39
362.257	9920.2
362.326	10152.09
362.394	10452.87
362.463	10875.34
362.531	11061.31
362.6	11451.63
362.668	11768.48
362.737	12149.62
362.805	12287.38
362.873	12668.52
362.942	13143.79
363.01	13315.99
363.079	13446.87
363.147	14232.1
363.215	14257.36
363.284	14615.54
363.352	15205.61
363.42	15538.53
363.488	15921.97
363.557	16277.85
363.625	16636.02
363.693	16826.59
363.761	17474.07
363.83	17823.06
363.898	18270.78
363.966	18665.7
364.034	18831.01
364.102	19209.85
364.171	19664.46
364.239	19956.05
364.307	20245.35
364.375	20888.23
364.443	21368.1
364.511	22210.74
364.579	22704.38
364.647	22977.6
364.715	24162.34
364.783	24651.39
364.851	25709.85
364.919	26237.94
364.987	26520.35
365.055	27916.32
365.123	28662.52
365.191	29140.09
365.259	30138.86
365.327	30285.8
365.395	31392.48
365.463	31810.35
365.531	32425.68
365.599	33013.46
365.667	33743.59
365.735	33851.5
365.802	34785.98
365.87	34735.47
365.938	35332.43
366.006	36326.6
366.074	36002.86
366.142	36875.35
366.209	36964.89
366.277	37612.37
366.345	37791.46
366.413	38613.43
366.48	38884.36
366.548	39047.37
366.616	40009.4
366.683	40576.52
366.751	41230.88
366.819	41494.92
366.886	41775.03
366.954	41350.27
367.022	41331.9
367.089	41823.25
367.157	42126.32
367.224	41853.1
367.292	42296.23
367.36	42470.72
367.427	42463.84
367.495	42803.64
367.562	42810.53
367.63	43563.62
367.697	43485.56
367.765	43928.69
367.832	43823.07
367.9	43871.29
367.967	44523.36
368.034	44415.44
368.102	44904.49
368.169	45613.96
368.237	45825.19
368.304	45995.1
368.371	46268.32
368.439	46318.84
368.506	46270.62
368.573	46555.32
368.641	47122.44
368.708	46702.27
368.775	47159.17
368.843	47737.77
368.91	47820.43
368.977	47781.39
369.044	48532.19
369.112	48644.69
369.179	49062.57
369.246	48970.73
369.313	49664.12
369.38	49156.7
369.448	49682.49
369.515	49721.52
369.582	49611.31
369.649	49677.9
369.716	50382.77
369.783	50091.18
369.85	50265.68
369.917	50610.08
369.984	50653.7
370.052	50839.68
370.119	50869.53
370.186	51158.82
370.253	51124.38
370.32	50773.09
370.387	51069.28
370.454	51294.29
370.521	51044.02
370.587	51165.71
370.654	50998.1
370.721	51321.84
370.788	51287.4
370.855	50899.37
370.922	51099.13
370.989	50807.53
371.056	50263.38
371.123	50355.22
371.189	49294.46
371.256	49324.31
371.323	48789.34
371.39	48483.97
371.457	47730.88
371.523	47021.41
371.59	45967.55
371.657	45483.09
371.724	44656.52
371.79	43485.56
371.857	42427.1
371.924	41005.87
371.991	39885.42
372.057	38259.84
372.124	36916.68
372.191	35180.89
372.257	33789.51
372.324	32646.1
372.39	30772.55
372.457	28719.92
372.524	27411.2
372.59	25636.38
372.657	24137.09
372.723	22630.9
372.79	21269.37
372.856	19590.99
372.923	18266.19
372.989	17366.16
373.056	15938.04
373.122	14723.45
373.189	13674.17
373.255	12643.26
373.322	11789.15
373.388	10964.88
373.454	10014.33
373.521	9084.45
373.587	8524.22
373.654	7954.81
373.72	7454.28
373.786	6772.37
373.853	6432.56
373.919	5808.04
373.985	5238.63
374.052	4937.86
374.118	4660.04
374.184	4288.08
374.25	4058.48
374.317	3714.08
374.383	3477.59
374.449	3264.06
374.515	3059.72
374.581	2807.16
374.648	2593.63
374.714	2540.82
374.78	2313.52
374.846	2217.08
374.912	2099.99
374.978	1872.68
375.044	1852.02
375.11	1865.79
375.177	1771.66
375.243	1599.46
375.309	1581.09
375.375	1374.45
375.441	1372.15
375.507	1346.9
375.573	1317.05
375.639	1220.62
375.705	1186.18
375.771	1170.1
375.837	1121.89
375.903	1119.59
375.968	1011.68
376.034	986.42
376.1	885.4
376.166	981.83
376.232	883.1
376.298	830.29
376.364	756.82
376.43	766.01
376.495	823.41
376.561	770.6
376.627	747.64
376.693	724.68
376.759	720.09
376.824	736.16
376.89	699.42
376.956	605.29
377.022	704.01
377.087	605.29
377.153	605.29
377.219	563.96
377.284	676.46
377.35	584.62
377.416	552.48
377.481	580.03
377.547	614.47
377.613	547.89
377.678	570.85
377.744	609.88
377.809	531.81
377.875	570.85
377.94	492.78
378.006	541
378.071	518.04
378.137	570.85
378.202	485.89
378.268	543.29
378.333	511.15
378.399	485.89
378.464	531.81
378.53	511.15
378.595	490.49
378.661	474.41
378.726	479
378.791	524.93
378.857	534.11
378.922	495.08
378.987	506.56
379.053	485.89
379.118	490.49
379.183	467.52
379.249	506.56
379.314	453.75
379.379	465.23
379.444	453.75
379.51	414.72
379.575	495.08
379.64	435.38
379.705	377.98
379.771	449.16
379.836	426.2
379.901	483.6
379.966	481.3
380.031	449.16
380.096	359.61
380.161	504.26
380.227	479
380.292	504.26
380.357	391.76
380.422	417.01
380.487	382.57
380.552	485.89
380.617	437.68
380.682	428.49
380.747	499.67
380.812	341.24
380.877	442.27
380.942	469.82
381.007	405.53
381.072	426.2
381.137	453.75
381.202	417.01
381.266	462.93
381.331	430.79
381.396	412.42
381.461	403.24
381.526	439.97
381.591	467.52
381.656	465.23
381.72	419.31
381.785	497.37
381.85	396.35
381.915	460.64
381.979	359.61
382.044	410.12
382.109	398.64
382.174	430.79
382.238	449.16
382.303	513.45
382.368	405.53
382.432	407.83
382.497	405.53
382.562	479
382.626	460.64
382.691	453.75
382.756	449.16
382.82	439.97
382.885	394.05
382.949	417.01
383.014	490.49
383.078	423.9
383.143	359.61
383.208	492.78
383.272	485.89
383.337	458.34
383.401	417.01
383.465	348.13
383.53	442.27
383.594	511.15
383.659	506.56
383.723	430.79
383.788	382.57
383.852	439.97
383.916	547.89
383.981	435.38
384.045	442.27
384.109	442.27
384.174	382.57
384.238	437.68
384.302	348.13
384.367	430.79
384.431	467.52
384.495	465.23
384.56	423.9
384.624	428.49
384.688	400.94
384.752	382.57
384.816	465.23
384.881	407.83
384.945	345.84
385.009	391.76
385.073	373.39
385.137	400.94
385.201	444.56
385.265	428.49
385.33	479
385.394	465.23
385.458	419.31
385.522	403.24
385.586	520.33
385.65	375.68
385.714	364.2
385.778	405.53
385.842	368.8
385.906	442.27
385.97	400.94
386.034	433.08
386.098	435.38
386.162	394.05
386.226	380.28
386.29	419.31
386.354	426.2
386.417	417.01
386.481	428.49
386.545	453.75
386.609	446.86
386.673	343.54
386.737	375.68
386.8	382.57
386.864	380.28
386.928	391.76
386.992	389.46
387.056	341.24
387.119	405.53
387.183	412.42
387.247	373.39
387.31	458.34
387.374	394.05
387.438	398.64
387.502	405.53
387.565	497.37
387.629	460.64
387.692	492.78
387.756	375.68
387.82	417.01
387.883	398.64
387.947	389.46
388.01	437.68
388.074	456.04
388.138	412.42
388.201	398.64
388.265	389.46
388.328	433.08
388.392	419.31
388.455	423.9
388.519	412.42
388.582	394.05
388.645	430.79
388.709	400.94
388.772	453.75
388.836	400.94
388.899	465.23
388.962	400.94
389.026	377.98
389.089	449.16
389.153	428.49
389.216	387.16
389.279	446.86
389.343	375.68
389.406	400.94
389.469	400.94
389.532	430.79
389.596	419.31
389.659	382.57
389.722	410.12
389.785	446.86
389.848	387.16
389.912	400.94
389.975	377.98
390.038	446.86
390.101	423.9
390.164	458.34
390.227	451.45
390.291	380.28
390.354	382.57
390.417	394.05
390.48	350.43
390.543	398.64
390.606	435.38
390.669	423.9
390.732	423.9
390.795	348.13
390.858	398.64
390.921	398.64
390.984	343.54
391.047	371.09
391.11	387.16
391.173	407.83
391.236	366.5
391.299	417.01
391.362	421.6
391.424	430.79
391.487	366.5
391.55	437.68
391.613	412.42
391.676	377.98
391.739	359.61
391.802	364.2
391.864	359.61
391.927	437.68
391.99	394.05
392.053	407.83
392.115	433.08
392.178	375.68
392.241	350.43
392.304	377.98
392.366	403.24
392.429	426.2
392.492	396.35
392.554	417.01
392.617	384.87
392.68	359.61
392.742	394.05
392.805	435.38
392.867	421.6
392.93	479
392.992	435.38
393.055	400.94
393.118	384.87
393.18	442.27
393.243	481.3
393.305	403.24
393.368	377.98
393.43	377.98
393.493	430.79
393.555	343.54
393.618	405.53
393.68	398.64
393.742	380.28
393.805	423.9
393.867	398.64
393.93	348.13
393.992	375.68
394.054	334.36
394.117	412.42
394.179	449.16
394.241	373.39
394.304	355.02
394.366	417.01
394.428	377.98
394.49	419.31
394.553	377.98
394.615	465.23
394.677	417.01
394.739	407.83
394.802	368.8
394.864	426.2
394.926	396.35
394.988	352.72
395.05	394.05
395.112	371.09
395.174	361.91
395.237	343.54
395.299	412.42
395.361	419.31
395.423	472.12
395.485	407.83
395.547	398.64
395.609	483.6
395.671	423.9
395.733	476.71
395.795	412.42
395.857	407.83
395.919	414.72
395.981	384.87
396.043	410.12
396.105	368.8
396.167	348.13
396.229	398.64
396.291	368.8
396.352	387.16
396.414	421.6
396.476	423.9
396.538	407.83
396.6	412.42
396.662	439.97
396.724	373.39
396.785	426.2
396.847	430.79
396.909	456.04
396.971	419.31
397.032	451.45
397.094	403.24
397.156	423.9
397.218	451.45
397.279	419.31
397.341	306.8
397.403	428.49
397.464	398.64
397.526	380.28
397.588	456.04
397.649	343.54
397.711	428.49
397.772	449.16
397.834	398.64
397.896	396.35
397.957	398.64
398.019	446.86
398.08	364.2
398.142	394.05
398.203	417.01
398.265	334.36
398.326	355.02
398.388	373.39
398.449	286.14
398.511	366.5
398.572	398.64
398.633	368.8
398.695	433.08
398.756	394.05
398.818	355.02
398.879	389.46
398.94	389.46
399.002	325.17
399.063	400.94
399.124	387.16
399.186	352.72
399.247	449.16
399.308	375.68
399.369	382.57
399.431	403.24
399.492	366.5
399.553	391.76
399.614	373.39
399.676	341.24
399.737	437.68
399.798	433.08
399.859	368.8
399.92	446.86
399.981	417.01
400.042	373.39
400.104	412.42
400.165	403.24
400.226	322.88
400.287	338.95
400.348	400.94
400.409	318.28
400.47	350.43
400.531	444.56
400.592	423.9
400.653	373.39
400.714	355.02
400.775	444.56
400.836	398.64
400.897	426.2
400.958	377.98
401.019	410.12
401.08	371.09
401.141	357.32
401.201	417.01
401.262	352.72
401.323	479
401.384	403.24
401.445	405.53
401.506	338.95
401.567	366.5
401.627	380.28
401.688	396.35
401.749	320.58
401.81	400.94
401.87	336.65
401.931	384.87
401.992	421.6
402.053	400.94
402.113	396.35
402.174	373.39
402.235	364.2
402.295	442.27
402.356	373.39
402.417	389.46
402.477	373.39
402.538	373.39
402.598	352.72
402.659	391.76
402.719	412.42
402.78	414.72
402.841	336.65
402.901	352.72
402.962	396.35
403.022	364.2
403.083	352.72
403.143	355.02
403.204	366.5
403.264	371.09
403.324	396.35
403.385	325.17
403.445	456.04
403.506	341.24
403.566	371.09
403.627	444.56
403.687	407.83
403.747	410.12
403.808	357.32
403.868	417.01
403.928	361.91
403.989	462.93
404.049	350.43
404.109	396.35
404.169	371.09
404.23	357.32
404.29	417.01
404.35	453.75
404.41	389.46
404.47	403.24
404.531	368.8
404.591	371.09
404.651	394.05
404.711	338.95
404.771	410.12
404.831	352.72
404.892	389.46
404.952	400.94
405.012	433.08
405.072	428.49
405.132	384.87
405.192	426.2
405.252	428.49
405.312	366.5
405.372	396.35
405.432	387.16
405.492	352.72
405.552	373.39
405.612	387.16
405.672	361.91
405.732	449.16
405.792	338.95
405.852	350.43
405.912	426.2
405.971	444.56
406.031	391.76
406.091	400.94
406.151	375.68
406.211	329.76
406.271	398.64
406.33	469.82
406.39	373.39
406.45	359.61
406.51	423.9
406.57	343.54
406.629	315.99
406.689	414.72
406.749	394.05
406.808	495.08
406.868	375.68
406.928	389.46
406.988	407.83
407.047	387.16
407.107	364.2
407.166	368.8
407.226	320.58
407.286	412.42
407.345	311.4
407.405	327.47
407.464	329.76
407.524	414.72
407.584	382.57
407.643	419.31
407.703	414.72
407.762	332.06
407.822	380.28
407.881	391.76
407.941	350.43
408	389.46
408.059	412.42
408.119	366.5
408.178	391.76
408.238	421.6
408.297	338.95
408.356	355.02
408.416	419.31
408.475	460.64
408.535	364.2
408.594	451.45
408.653	410.12
408.712	405.53
408.772	407.83
408.831	345.84
408.89	306.8
408.95	322.88
409.009	435.38
409.068	375.68
409.127	345.84
409.186	403.24
409.246	371.09
409.305	426.2
409.364	396.35
409.423	419.31
409.482	400.94
409.541	371.09
409.6	380.28
409.66	417.01
409.719	377.98
409.778	410.12
409.837	380.28
409.896	375.68
409.955	421.6
410.014	412.42
410.073	414.72
410.132	398.64
410.191	396.35
410.25	368.8
410.309	382.57
410.368	403.24
410.427	357.32
410.486	366.5
410.545	384.87
410.603	382.57
410.662	336.65
410.721	419.31
410.78	400.94
410.839	350.43
410.898	373.39
410.957	382.57
411.015	387.16
411.074	391.76
411.133	389.46
411.192	410.12
411.25	423.9
411.309	430.79
411.368	364.2
411.427	403.24
411.485	373.39
411.544	352.72
411.603	373.39
411.661	355.02
411.72	391.76
411.779	368.8
411.837	417.01
411.896	341.24
411.955	387.16
412.013	350.43
412.072	407.83
412.13	320.58
412.189	371.09
412.247	380.28
412.306	398.64
412.364	389.46
412.423	373.39
412.481	412.42
412.54	421.6
412.598	412.42
412.657	435.38
412.715	373.39
412.774	423.9
412.832	391.76
412.891	377.98
412.949	398.64
413.007	382.57
413.066	394.05
413.124	382.57
413.182	357.32
413.241	389.46
413.299	368.8
413.357	387.16
413.416	345.84
413.474	359.61
413.532	352.72
413.59	384.87
413.649	380.28
413.707	419.31
413.765	366.5
413.823	366.5
413.881	405.53
413.94	375.68
413.998	433.08
414.056	391.76
414.114	382.57
414.172	283.84
414.23	341.24
414.288	398.64
414.347	400.94
414.405	373.39
414.463	377.98
414.521	366.5
414.579	412.42
414.637	373.39
414.695	391.76
414.753	380.28
414.811	368.8
414.869	387.16
414.927	368.8
414.985	474.41
415.043	417.01
415.101	412.42
415.158	412.42
415.216	389.46
415.274	410.12
415.332	384.87
415.39	414.72
415.448	373.39
415.506	394.05
415.563	419.31
415.621	350.43
415.679	375.68
415.737	414.72
415.795	368.8
415.852	405.53
415.91	394.05
415.968	387.16
416.026	375.68
416.083	357.32
416.141	449.16
416.199	359.61
416.256	394.05
416.314	442.27
416.372	419.31
416.429	433.08
416.487	389.46
416.544	350.43
416.602	444.56
416.66	350.43
416.717	380.28
416.775	371.09
416.832	375.68
416.89	403.24
416.947	361.91
417.005	366.5
417.062	426.2
417.12	373.39
417.177	400.94
417.235	352.72
417.292	345.84
417.35	352.72
417.407	364.2
417.464	391.76
417.522	435.38
417.579	355.02
417.637	421.6
417.694	355.02
417.751	332.06
417.809	357.32
417.866	359.61
417.923	387.16
417.981	414.72
418.038	352.72
418.095	391.76
418.152	338.95
418.21	417.01
418.267	371.09
418.324	366.5
418.381	382.57
418.438	423.9
418.496	407.83
418.553	407.83
418.61	391.76
418.667	345.84
418.724	398.64
418.781	398.64
418.838	389.46
418.895	341.24
418.952	391.76
419.01	357.32
419.067	398.64
419.124	421.6
419.181	389.46
419.238	373.39
419.295	405.53
419.352	375.68
419.409	437.68
419.466	343.54
419.523	391.76
419.579	306.8
419.636	373.39
419.693	414.72
419.75	403.24
419.807	336.65
419.864	412.42
419.921	391.76
419.978	334.36
420.034	382.57
420.091	364.2
420.148	350.43
420.205	419.31
420.262	421.6
420.318	359.61
420.375	405.53
420.432	384.87
420.489	391.76
420.545	419.31
420.602	366.5
420.659	343.54
420.715	387.16
420.772	304.51
420.829	364.2
420.885	345.84
420.942	357.32
420.999	366.5
421.055	343.54
421.112	391.76
421.168	341.24
421.225	364.2
421.282	377.98
421.338	389.46
421.395	350.43
421.451	389.46
421.508	350.43
421.564	361.91
421.621	394.05
421.677	352.72
421.734	320.58
421.79	403.24
421.846	334.36
421.903	327.47
421.959	403.24
422.016	437.68
422.072	419.31
422.128	329.76
422.185	336.65
422.241	377.98
422.297	327.47
422.354	377.98
422.41	400.94
422.466	419.31
422.523	348.13
422.579	414.72
422.635	384.87
422.691	414.72
422.748	350.43
422.804	387.16
422.86	394.05
422.916	405.53
422.972	366.5
423.029	371.09
423.085	435.38
423.141	423.9
423.197	371.09
423.253	318.28
423.309	352.72
423.365	407.83
423.421	315.99
423.477	384.87
423.533	322.88
423.589	375.68
423.645	320.58
423.701	453.75
423.757	355.02
423.813	329.76
423.869	295.32
423.925	373.39
423.981	398.64
424.037	410.12
424.093	355.02
424.149	380.28
424.205	336.65
424.261	403.24
424.317	405.53
424.373	345.84
424.428	407.83
424.484	391.76
424.54	396.35
424.596	352.72
424.652	327.47
424.708	320.58
424.763	332.06
424.819	357.32
424.875	334.36
424.931	304.51
424.986	387.16
425.042	398.64
425.098	350.43
425.153	361.91
425.209	375.68
425.265	412.42
425.32	361.91
425.376	407.83
425.432	398.64
425.487	387.16
425.543	359.61
425.598	325.17
425.654	320.58
425.709	375.68
425.765	366.5
425.82	389.46
425.876	389.46
425.932	382.57
425.987	313.69
426.042	405.53
426.098	375.68
426.153	426.2
426.209	391.76
426.264	361.91
426.32	398.64
426.375	332.06
426.43	394.05
426.486	336.65
426.541	334.36
426.597	357.32
426.652	338.95
426.707	359.61
426.763	442.27
426.818	361.91
426.873	355.02
426.928	355.02
426.984	421.6
427.039	366.5
427.094	320.58
427.149	377.98
427.205	396.35
427.26	368.8
427.315	377.98
427.37	359.61
427.425	384.87
427.48	394.05
427.536	361.91
427.591	403.24
427.646	403.24
427.701	355.02
427.756	322.88
427.811	407.83
427.866	405.53
427.921	304.51
427.976	364.2
428.031	384.87
428.086	338.95
428.141	348.13
428.196	384.87
428.251	405.53
428.306	322.88
428.361	373.39
428.416	410.12
428.471	382.57
428.526	398.64
428.581	361.91
428.636	400.94
428.691	345.84
428.745	359.61
428.8	334.36
428.855	371.09
428.91	364.2
428.965	345.84
429.02	338.95
429.074	384.87
429.129	407.83
429.184	364.2
429.239	364.2
429.293	345.84
429.348	359.61
429.403	398.64
429.457	299.92
429.512	419.31
429.567	405.53
429.621	320.58
429.676	394.05
429.731	428.49
429.785	391.76
429.84	417.01
429.895	345.84
429.949	368.8
430.004	355.02
430.058	391.76
430.113	394.05
430.167	437.68
430.222	394.05
430.276	377.98
430.331	465.23
430.385	377.98
430.44	414.72
430.494	400.94
430.549	348.13
430.603	382.57
430.657	270.07
430.712	320.58
430.766	387.16
430.821	341.24
430.875	368.8
430.929	421.6
430.984	405.53
431.038	403.24
431.092	407.83
431.147	384.87
431.201	345.84
431.255	426.2
431.309	391.76
431.364	352.72
431.418	396.35
431.472	336.65
431.526	371.09
431.581	400.94
431.635	343.54
431.689	426.2
431.743	327.47
431.797	375.68
431.851	327.47
431.906	389.46
431.96	421.6
432.014	377.98
432.068	391.76
432.122	364.2
432.176	361.91
432.23	419.31
432.284	412.42
432.338	382.57
432.392	341.24
432.446	343.54
432.5	405.53
432.554	336.65
432.608	359.61
432.662	361.91
432.716	361.91
432.77	366.5
432.824	364.2
432.878	315.99
432.931	361.91
432.985	421.6
433.039	336.65
433.093	382.57
433.147	380.28
433.201	375.68
433.254	373.39
433.308	377.98
433.362	396.35
433.416	398.64
433.47	396.35
433.523	400.94
433.577	403.24
433.631	430.79
433.684	384.87
433.738	366.5
433.792	405.53
433.846	304.51
433.899	373.39
433.953	345.84
434.006	382.57
434.06	343.54
434.114	394.05
434.167	394.05
434.221	394.05
