Data from FLMS155811_12-38-01-022.txt Node
Date: Mon Mar 23 12:38:01 MDT 2020
User: ECEn Student
Spectrometer: FLMS15581
Trigger mode: 0
Integration Time (sec): 1.200000E-1
Scans to average: 1
Electric dark correction enabled: true
Nonlinearity correction enabled: false
Boxcar width: 0
XAxis mode: Wavelengths
Number of Pixels in Spectrum: 2048
>>>>>Begin Spectral Data<<<<<
298.026	48.65
298.106	48.65
298.185	48.65
298.265	-47.79
298.344	-11.05
298.424	-77.63
298.503	-63.86
298.583	-125.85
298.662	-56.97
298.741	-1.87
298.821	-121.26
298.9	-54.67
298.98	9.61
299.059	-43.19
299.138	-29.42
299.217	80.79
299.297	14.21
299.376	92.27
299.455	92.27
299.535	140.49
299.614	145.08
299.693	131.3
299.772	142.78
299.852	193.3
299.931	289.73
300.01	213.96
300.089	202.48
300.168	246.1
300.247	294.32
300.327	232.33
300.406	308.1
300.485	367.79
300.564	324.17
300.643	321.87
300.722	331.06
300.801	342.54
300.88	358.61
300.959	386.16
301.038	358.61
301.117	294.32
301.196	404.53
301.275	404.53
301.354	358.61
301.433	390.75
301.512	404.53
301.591	349.42
301.67	331.06
301.749	422.9
301.828	411.42
301.907	363.2
301.985	344.83
302.064	464.22
302.143	381.57
302.222	393.05
302.301	429.78
302.38	406.82
302.458	356.31
302.537	383.86
302.616	374.68
302.695	411.42
302.773	354.02
302.852	438.97
302.931	402.23
303.01	365.5
303.088	365.5
303.167	397.64
303.246	365.5
303.324	365.5
303.403	360.9
303.481	402.23
303.56	349.42
303.639	333.35
303.717	360.9
303.796	372.38
303.874	374.68
303.953	409.12
304.032	326.46
304.11	321.87
304.189	356.31
304.267	383.86
304.346	379.27
304.424	301.21
304.502	308.1
304.581	337.94
304.659	365.5
304.738	354.02
304.816	328.76
304.895	370.09
304.973	393.05
305.051	356.31
305.13	374.68
305.208	328.76
305.286	349.42
305.365	402.23
305.443	388.46
305.521	324.17
305.6	324.17
305.678	386.16
305.756	374.68
305.834	367.79
305.913	381.57
305.991	372.38
306.069	390.75
306.147	393.05
306.225	372.38
306.304	434.38
306.382	374.68
306.46	365.5
306.538	356.31
306.616	379.27
306.694	418.3
306.772	365.5
306.85	379.27
306.929	383.86
307.007	358.61
307.085	402.23
307.163	379.27
307.241	372.38
307.319	379.27
307.397	381.57
307.475	360.9
307.553	390.75
307.631	406.82
307.709	409.12
307.786	370.09
307.864	354.02
307.942	328.76
308.02	285.14
308.098	337.94
308.176	335.65
308.254	379.27
308.332	406.82
308.409	372.38
308.487	365.5
308.565	365.5
308.643	381.57
308.721	321.87
308.798	342.54
308.876	370.09
308.954	379.27
309.032	296.62
309.109	395.34
309.187	395.34
309.265	367.79
309.342	459.63
309.42	376.98
309.498	404.53
309.575	395.34
309.653	289.73
309.731	372.38
309.808	427.49
309.886	372.38
309.963	372.38
310.041	379.27
310.119	393.05
310.196	397.64
310.274	397.64
310.351	347.13
310.429	358.61
310.506	370.09
310.584	358.61
310.661	381.57
310.738	393.05
310.816	390.75
310.893	418.3
310.971	381.57
311.048	402.23
311.126	374.68
311.203	347.13
311.28	411.42
311.358	379.27
311.435	342.54
311.512	434.38
311.59	393.05
311.667	365.5
311.744	422.9
311.821	390.75
311.899	386.16
311.976	374.68
312.053	393.05
312.13	455.04
312.208	383.86
312.285	441.26
312.362	379.27
312.439	443.56
312.516	370.09
312.593	438.97
312.671	436.67
312.748	363.2
312.825	308.1
312.902	418.3
312.979	347.13
313.056	388.46
313.133	370.09
313.21	471.11
313.287	425.19
313.364	351.72
313.441	399.94
313.518	445.86
313.595	413.71
313.672	386.16
313.749	399.94
313.826	397.64
313.903	383.86
313.98	386.16
314.057	376.98
314.134	379.27
314.211	445.86
314.287	416.01
314.364	422.9
314.441	386.16
314.518	372.38
314.595	365.5
314.672	399.94
314.748	349.42
314.825	367.79
314.902	388.46
314.979	411.42
315.055	393.05
315.132	413.71
315.209	331.06
315.286	335.65
315.362	379.27
315.439	429.78
315.516	390.75
315.592	367.79
315.669	425.19
315.746	354.02
315.822	370.09
315.899	434.38
315.975	436.67
316.052	418.3
316.128	379.27
316.205	422.9
316.282	395.34
316.358	397.64
316.435	416.01
316.511	395.34
316.588	367.79
316.664	386.16
316.741	404.53
316.817	372.38
316.893	367.79
316.97	372.38
317.046	445.86
317.123	422.9
317.199	365.5
317.275	372.38
317.352	360.9
317.428	393.05
317.504	436.67
317.581	365.5
317.657	393.05
317.733	432.08
317.81	393.05
317.886	388.46
317.962	379.27
318.038	402.23
318.115	399.94
318.191	347.13
318.267	418.3
318.343	436.67
318.419	420.6
318.496	397.64
318.572	356.31
318.648	360.9
318.724	374.68
318.8	420.6
318.876	363.2
318.952	319.58
319.028	372.38
319.105	374.68
319.181	383.86
319.257	397.64
319.333	429.78
319.409	416.01
319.485	448.15
319.561	425.19
319.637	418.3
319.713	402.23
319.789	468.82
319.865	388.46
319.94	399.94
320.016	383.86
320.092	282.84
320.168	404.53
320.244	427.49
320.32	471.11
320.396	379.27
320.472	457.34
320.547	386.16
320.623	347.13
320.699	445.86
320.775	427.49
320.851	429.78
320.926	404.53
321.002	411.42
321.078	370.09
321.154	406.82
321.229	443.56
321.305	450.45
321.381	383.86
321.456	409.12
321.532	432.08
321.608	335.65
321.683	367.79
321.759	388.46
321.835	379.27
321.91	418.3
321.986	452.74
322.061	418.3
322.137	473.41
322.212	381.57
322.288	443.56
322.364	354.02
322.439	443.56
322.515	438.97
322.59	434.38
322.666	409.12
322.741	425.19
322.816	363.2
322.892	379.27
322.967	390.75
323.043	416.01
323.118	404.53
323.193	411.42
323.269	372.38
323.344	471.11
323.42	399.94
323.495	367.79
323.57	461.93
323.646	448.15
323.721	340.24
323.796	365.5
323.871	376.98
323.947	386.16
324.022	374.68
324.097	395.34
324.172	388.46
324.248	349.42
324.323	459.63
324.398	370.09
324.473	367.79
324.548	376.98
324.623	441.26
324.699	395.34
324.774	473.41
324.849	409.12
324.924	358.61
324.999	409.12
325.074	418.3
325.149	416.01
325.224	402.23
325.299	436.67
325.374	374.68
325.449	425.19
325.524	376.98
325.599	457.34
325.674	448.15
325.749	383.86
325.824	500.96
325.899	367.79
325.974	429.78
326.049	402.23
326.124	411.42
326.199	402.23
326.273	372.38
326.348	420.6
326.423	434.38
326.498	416.01
326.573	402.23
326.648	438.97
326.722	402.23
326.797	390.75
326.872	427.49
326.947	393.05
327.021	379.27
327.096	425.19
327.171	379.27
327.245	383.86
327.32	434.38
327.395	413.71
327.47	418.3
327.544	395.34
327.619	429.78
327.693	473.41
327.768	386.16
327.843	438.97
327.917	427.49
327.992	393.05
328.066	388.46
328.141	395.34
328.215	365.5
328.29	471.11
328.364	498.66
328.439	445.86
328.513	427.49
328.588	429.78
328.662	404.53
328.737	459.63
328.811	471.11
328.886	416.01
328.96	356.31
329.035	445.86
329.109	445.86
329.183	344.83
329.258	459.63
329.332	411.42
329.406	374.68
329.481	402.23
329.555	438.97
329.629	404.53
329.704	397.64
329.778	397.64
329.852	429.78
329.926	411.42
330.001	482.59
330.075	399.94
330.149	395.34
330.223	425.19
330.297	360.9
330.372	324.17
330.446	388.46
330.52	464.22
330.594	386.16
330.668	422.9
330.742	404.53
330.816	445.86
330.89	406.82
330.964	372.38
331.038	409.12
331.113	432.08
331.187	448.15
331.261	450.45
331.335	452.74
331.409	443.56
331.483	422.9
331.557	461.93
331.63	404.53
331.704	436.67
331.778	459.63
331.852	450.45
331.926	386.16
332	427.49
332.074	337.94
332.148	459.63
332.222	445.86
332.295	445.86
332.369	452.74
332.443	370.09
332.517	409.12
332.591	425.19
332.665	411.42
332.738	390.75
332.812	418.3
332.886	342.54
332.959	354.02
333.033	388.46
333.107	429.78
333.181	420.6
333.254	427.49
333.328	416.01
333.402	399.94
333.475	457.34
333.549	370.09
333.622	452.74
333.696	441.26
333.77	411.42
333.843	347.13
333.917	418.3
333.99	464.22
334.064	349.42
334.137	420.6
334.211	374.68
334.284	379.27
334.358	402.23
334.431	441.26
334.505	471.11
334.578	438.97
334.652	413.71
334.725	370.09
334.799	418.3
334.872	450.45
334.945	406.82
335.019	427.49
335.092	418.3
335.165	374.68
335.239	413.71
335.312	450.45
335.385	397.64
335.459	379.27
335.532	416.01
335.605	455.04
335.678	450.45
335.752	464.22
335.825	363.2
335.898	409.12
335.971	457.34
336.045	487.18
336.118	411.42
336.191	402.23
336.264	402.23
336.337	402.23
336.41	445.86
336.483	420.6
336.557	365.5
336.63	383.86
336.703	416.01
336.776	416.01
336.849	416.01
336.922	480.3
336.995	388.46
337.068	409.12
337.141	464.22
337.214	422.9
337.287	409.12
337.36	422.9
337.433	429.78
337.506	397.64
337.579	409.12
337.652	452.74
337.725	390.75
337.797	429.78
337.87	413.71
337.943	457.34
338.016	445.86
338.089	383.86
338.162	337.94
338.235	464.22
338.307	489.48
338.38	406.82
338.453	406.82
338.526	374.68
338.598	429.78
338.671	468.82
338.744	432.08
338.817	491.78
338.889	457.34
338.962	517.03
339.035	376.98
339.107	376.98
339.18	416.01
339.253	526.22
339.325	432.08
339.398	418.3
339.47	390.75
339.543	399.94
339.616	390.75
339.688	422.9
339.761	484.89
339.833	429.78
339.906	480.3
339.978	425.19
340.051	459.63
340.123	434.38
340.196	489.48
340.268	491.78
340.341	459.63
340.413	427.49
340.485	432.08
340.558	445.86
340.63	461.93
340.703	478
340.775	411.42
340.847	436.67
340.92	484.89
340.992	478
341.064	432.08
341.137	443.56
341.209	512.44
341.281	360.9
341.354	473.41
341.426	390.75
341.498	445.86
341.57	416.01
341.643	441.26
341.715	466.52
341.787	420.6
341.859	388.46
341.931	381.57
342.003	487.18
342.076	416.01
342.148	434.38
342.22	450.45
342.292	411.42
342.364	418.3
342.436	432.08
342.508	468.82
342.58	468.82
342.652	406.82
342.724	452.74
342.796	413.71
342.868	482.59
342.94	459.63
343.012	482.59
343.084	450.45
343.156	441.26
343.228	388.46
343.3	445.86
343.372	425.19
343.444	445.86
343.516	491.78
343.588	478
343.66	420.6
343.731	432.08
343.803	484.89
343.875	480.3
343.947	523.92
344.019	429.78
344.09	404.53
344.162	434.38
344.234	491.78
344.306	473.41
344.377	457.34
344.449	432.08
344.521	455.04
344.593	461.93
344.664	480.3
344.736	393.05
344.808	514.74
344.879	489.48
344.951	399.94
345.023	395.34
345.094	484.89
345.166	482.59
345.237	399.94
345.309	480.3
345.38	450.45
345.452	489.48
345.524	494.07
345.595	475.7
345.667	464.22
345.738	464.22
345.81	491.78
345.881	443.56
345.953	443.56
346.024	480.3
346.095	429.78
346.167	480.3
346.238	473.41
346.31	464.22
346.381	500.96
346.452	457.34
346.524	482.59
346.595	494.07
346.666	517.03
346.738	457.34
346.809	452.74
346.88	489.48
346.952	461.93
347.023	523.92
347.094	471.11
347.165	496.37
347.237	533.1
347.308	482.59
347.379	528.51
347.45	514.74
347.521	441.26
347.593	487.18
347.664	526.22
347.735	429.78
347.806	478
347.877	482.59
347.948	450.45
348.019	427.49
348.09	457.34
348.161	528.51
348.233	452.74
348.304	491.78
348.375	526.22
348.446	530.81
348.517	507.85
348.588	455.04
348.659	466.52
348.73	500.96
348.801	512.44
348.871	496.37
348.942	517.03
349.013	365.5
349.084	535.4
349.155	480.3
349.226	510.14
349.297	533.1
349.368	503.26
349.439	459.63
349.509	496.37
349.58	452.74
349.651	491.78
349.722	535.4
349.793	533.1
349.863	464.22
349.934	551.47
350.005	480.3
350.076	505.55
350.146	459.63
350.217	503.26
350.288	441.26
350.358	473.41
350.429	505.55
350.5	533.1
350.57	494.07
350.641	574.43
350.711	503.26
350.782	546.88
350.853	574.43
350.923	553.77
350.994	452.74
351.064	521.62
351.135	590.5
351.205	572.14
351.276	556.06
351.346	546.88
351.417	539.99
351.487	638.72
351.558	546.88
351.628	562.95
351.699	622.65
351.769	553.77
351.84	650.2
351.91	572.14
351.98	689.23
352.051	659.39
352.121	712.19
352.191	654.79
352.262	652.5
352.332	703.01
352.402	705.31
352.473	700.71
352.543	735.15
352.613	748.93
352.683	760.41
352.754	824.7
352.824	849.95
352.894	817.81
352.964	902.76
353.035	934.91
353.105	879.8
353.175	893.58
353.245	877.51
353.315	992.31
353.385	1040.52
353.455	994.6
353.526	1061.19
353.596	1173.69
353.666	1166.8
353.736	1281.6
353.806	1258.64
353.876	1339
353.946	1325.23
354.016	1437.73
354.086	1472.17
354.156	1437.73
354.226	1573.2
354.296	1607.64
354.366	1596.16
354.436	1736.21
354.506	1710.96
354.576	1942.85
354.645	1864.79
354.715	1991.07
354.785	2135.72
354.855	2167.86
354.925	2257.41
354.995	2259.7
355.065	2445.68
355.134	2482.42
355.204	2549
355.274	2551.3
355.344	2838.3
355.414	3003.61
355.483	2930.14
355.553	3079.38
355.623	3171.22
355.693	3343.42
355.762	3453.63
355.832	3531.69
355.902	3770.48
355.971	3889.87
356.041	4000.08
356.111	4238.86
356.18	4351.37
356.25	4466.17
356.319	4553.42
356.389	4681.99
356.459	5040.17
356.528	5081.5
356.598	5239.92
356.667	5549.89
356.737	5559.07
356.806	5816.22
356.876	5873.62
356.945	6183.58
357.015	6456.81
357.084	6700.19
357.154	6544.06
357.223	7115.76
357.292	7278.78
357.362	7485.42
357.431	7552.01
357.501	7836.71
357.57	8135.19
357.639	8346.43
357.709	8904.36
357.778	9129.36
357.847	9133.96
357.917	9485.25
357.986	9903.12
358.055	9921.49
358.124	10373.8
358.194	10895
358.263	11129.19
358.332	11425.37
358.401	11489.66
358.471	11891.46
358.54	12440.21
358.609	12534.35
358.678	12839.72
358.747	12959.11
358.816	13562.96
358.886	14091.04
358.955	14311.46
359.024	14805.1
359.093	14988.78
359.162	15679.88
359.231	16127.6
359.3	16265.36
359.369	16499.55
359.438	16977.12
359.507	17316.93
359.576	17734.81
359.645	18327.18
359.714	18733.57
359.783	19270.84
359.852	19491.26
359.921	20007.86
359.99	20203.02
360.059	21052.54
360.128	21013.51
360.197	21784.97
360.266	22714.85
360.334	23059.25
360.403	23571.26
360.472	23975.36
360.541	24209.55
360.61	24958.05
360.679	25327.71
360.747	25924.67
360.816	26246.12
360.885	26781.09
360.954	27646.68
361.022	27830.36
361.091	28712.03
361.16	28964.59
361.228	29761.31
361.297	30156.22
361.366	30886.35
361.434	31405.25
361.503	31761.13
361.572	32858.62
361.64	33294.86
361.709	34165.05
361.778	34438.28
361.846	34872.22
361.915	35590.87
361.983	36194.72
362.052	37030.47
362.12	37707.8
362.189	37852.44
362.257	39151.98
362.326	39606.59
362.394	39951
362.463	41202.32
362.531	41303.35
362.6	42389.36
362.668	42635.03
362.737	43376.64
362.805	43817.48
362.873	44487.91
362.942	45606.07
363.01	46104.3
363.079	46646.16
363.147	47408.44
363.215	47569.16
363.284	48737.82
363.352	48799.82
363.42	49736.59
363.488	49823.84
363.557	50436.87
363.625	50974.14
363.693	51543.55
363.761	52034.89
363.83	52556.09
363.898	53022.18
363.966	53254.08
364.034	53984.21
364.102	54418.15
364.171	54698.27
364.239	54539.84
364.307	55575.34
364.375	55430.69
364.443	55857.75
364.511	56213.63
364.579	56544.26
364.647	56867.99
364.715	57026.42
364.783	57428.22
364.851	57430.52
364.919	57811.65
364.987	58098.66
365.055	57983.86
365.123	58420.1
365.191	58727.76
365.259	58849.45
365.327	58897.67
365.395	59042.32
365.463	59434.93
365.531	59515.29
365.599	59887.25
365.667	59765.56
365.735	59910.21
365.802	60291.34
365.87	60353.34
365.938	60185.73
366.006	60700.03
366.074	60766.62
366.142	60805.65
366.209	60819.43
366.277	61028.36
366.345	60931.93
366.413	61094.95
366.48	61182.2
366.548	61129.39
366.616	61386.54
366.683	61315.36
366.751	61363.58
366.819	61356.69
366.886	61262.56
366.954	61437.05
367.022	61308.48
367.089	61402.61
367.157	61430.17
367.224	61301.59
367.292	61329.14
367.36	61448.53
367.427	61283.22
367.495	61324.55
367.562	61393.43
367.63	61085.76
367.697	61310.77
367.765	61205.16
367.832	61115.61
367.9	61200.56
367.967	61166.12
368.034	60938.82
368.102	61032.96
368.169	61039.84
368.237	60846.98
368.304	60844.68
368.371	60587.53
368.439	60713.81
368.506	60610.49
368.573	60390.07
368.641	60435.99
368.708	60243.13
368.775	60419.92
368.843	60070.93
368.91	59969.9
368.977	59855.1
369.044	59988.27
369.112	59717.34
369.179	59717.34
369.246	59304.06
369.313	59366.05
369.38	59226
369.448	59113.49
369.515	59035.43
369.582	58929.81
369.649	59067.57
369.716	58638.22
369.783	58596.89
369.85	58773.68
369.917	58615.26
369.984	58449.95
370.052	58459.13
370.119	58507.35
370.186	58344.33
370.253	58323.66
370.32	57892.01
370.387	58121.62
370.454	58064.22
370.521	57848.39
370.587	57954.01
370.654	57673.89
370.721	57788.69
370.788	57497.1
370.855	57549.91
370.922	57253.72
370.989	57380
371.056	57432.81
371.123	56874.88
371.189	56886.36
371.256	56519
371.323	56323.84
371.39	56016.17
371.457	55552.38
371.523	55361.81
371.59	54553.62
371.657	54408.97
371.724	53809.71
371.79	53008.4
371.857	52262.2
371.924	51504.52
371.991	50214.16
372.057	49070.75
372.124	47879.12
372.191	46372.93
372.257	44441.99
372.324	43287.1
372.39	41204.62
372.457	39321.89
372.524	37140.68
372.59	35478.37
372.657	33062.97
372.723	31109.06
372.79	28982.96
372.856	27419.38
372.923	25440.22
372.989	24145.27
373.056	22166.11
373.122	20547.42
373.189	18797.86
373.255	17514.39
373.322	16100.05
373.388	15050.77
373.454	13863.74
373.521	12832.83
373.587	11916.72
373.654	10892.7
373.72	10073.02
373.786	9081.15
373.853	8514.03
373.919	8148.97
373.985	7407.36
374.052	6752.99
374.118	6293.79
374.184	5772.6
374.25	5437.38
374.317	4989.66
374.383	4780.72
374.449	4316.93
374.515	4020.74
374.581	3816.4
374.648	3554.65
374.714	3318.16
374.78	3026.57
374.846	2881.92
374.912	2693.65
374.978	2493.9
375.044	2411.24
375.11	2381.39
375.177	2317.1
375.243	2071.43
375.309	2046.17
375.375	1931.37
375.441	1777.54
375.507	1694.89
375.573	1586.97
375.639	1632.89
375.705	1437.73
375.771	1384.92
375.837	1412.48
375.903	1283.9
375.968	1279.31
376.034	1182.88
376.1	1201.24
376.166	1077.26
376.232	1072.67
376.298	1065.78
376.364	1026.75
376.43	1008.38
376.495	969.35
376.561	1008.38
376.627	983.12
376.693	843.07
376.759	884.39
376.824	1008.38
376.89	833.88
376.956	813.22
377.022	829.29
377.087	840.77
377.153	760.41
377.219	714.49
377.284	806.33
377.35	831.59
377.416	709.9
377.481	723.67
377.547	769.59
377.613	723.67
377.678	696.12
377.744	670.87
377.809	682.35
377.875	622.65
377.94	663.98
378.006	677.75
378.071	661.68
378.137	666.27
378.202	581.32
378.268	551.47
378.333	622.65
378.399	634.13
378.464	608.87
378.53	574.43
378.595	620.35
378.661	535.4
378.726	592.8
378.791	601.98
378.857	618.06
378.922	567.54
378.987	537.7
379.053	517.03
379.118	494.07
379.183	505.55
379.249	526.22
379.314	576.73
379.379	565.25
379.444	526.22
379.51	597.39
379.575	533.1
379.64	581.32
379.705	512.44
379.771	574.43
379.836	510.14
379.901	464.22
379.966	510.14
380.031	526.22
380.096	521.62
380.161	567.54
380.227	558.36
380.292	484.89
380.357	519.33
380.422	503.26
380.487	549.18
380.552	494.07
380.617	471.11
380.682	494.07
380.747	475.7
380.812	544.58
380.877	475.7
380.942	468.82
381.007	480.3
381.072	558.36
381.137	569.84
381.202	535.4
381.266	487.18
381.331	473.41
381.396	475.7
381.461	505.55
381.526	510.14
381.591	510.14
381.656	526.22
381.72	503.26
381.785	464.22
381.85	466.52
381.915	558.36
381.979	537.7
382.044	434.38
382.109	475.7
382.174	457.34
382.238	567.54
382.303	475.7
382.368	441.26
382.432	484.89
382.497	457.34
382.562	512.44
382.626	494.07
382.691	496.37
382.756	507.85
382.82	526.22
382.885	438.97
382.949	475.7
383.014	455.04
383.078	519.33
383.143	473.41
383.208	466.52
383.272	526.22
383.337	466.52
383.401	549.18
383.465	461.93
383.53	484.89
383.594	399.94
383.659	507.85
383.723	457.34
383.788	450.45
383.852	411.42
383.916	475.7
383.981	478
384.045	448.15
384.109	432.08
384.174	507.85
384.238	471.11
384.302	413.71
384.367	434.38
384.431	422.9
384.495	473.41
384.56	510.14
384.624	464.22
384.688	450.45
384.752	537.7
384.816	411.42
384.881	457.34
384.945	466.52
385.009	427.49
385.073	484.89
385.137	457.34
385.201	498.66
385.265	480.3
385.33	420.6
385.394	475.7
385.458	429.78
385.522	533.1
385.586	500.96
385.65	489.48
385.714	457.34
385.778	429.78
385.842	399.94
385.906	397.64
385.97	413.71
386.034	452.74
386.098	443.56
386.162	457.34
386.226	491.78
386.29	450.45
386.354	436.67
386.417	418.3
386.481	448.15
386.545	411.42
386.609	441.26
386.673	461.93
386.737	438.97
386.8	416.01
386.864	471.11
386.928	441.26
386.992	455.04
387.056	416.01
387.119	459.63
387.183	473.41
387.247	432.08
387.31	388.46
387.374	422.9
387.438	459.63
387.502	457.34
387.565	468.82
387.629	478
387.692	445.86
387.756	445.86
387.82	448.15
387.883	422.9
387.947	418.3
388.01	507.85
388.074	471.11
388.138	521.62
388.201	445.86
388.265	438.97
388.328	404.53
388.392	459.63
388.455	429.78
388.519	457.34
388.582	393.05
388.645	409.12
388.709	399.94
388.772	388.46
388.836	484.89
388.899	443.56
388.962	448.15
389.026	466.52
389.089	482.59
389.153	489.48
389.216	459.63
389.279	443.56
389.343	484.89
389.406	388.46
389.469	455.04
389.532	427.49
389.596	432.08
389.659	388.46
389.722	450.45
389.785	425.19
389.848	420.6
389.912	468.82
389.975	514.74
390.038	519.33
390.101	372.38
390.164	425.19
390.227	455.04
390.291	496.37
390.354	425.19
390.417	466.52
390.48	413.71
390.543	461.93
390.606	395.34
390.669	386.16
390.732	434.38
390.795	445.86
390.858	386.16
390.921	464.22
390.984	491.78
391.047	459.63
391.11	461.93
391.173	445.86
391.236	425.19
391.299	484.89
391.362	372.38
391.424	427.49
391.487	406.82
391.55	372.38
391.613	365.5
391.676	416.01
391.739	365.5
391.802	455.04
391.864	448.15
391.927	429.78
391.99	349.42
392.053	448.15
392.115	466.52
392.178	425.19
392.241	448.15
392.304	376.98
392.366	393.05
392.429	383.86
392.492	422.9
392.554	402.23
392.617	445.86
392.68	443.56
392.742	411.42
392.805	386.16
392.867	480.3
392.93	420.6
392.992	455.04
393.055	457.34
393.118	427.49
393.18	464.22
393.243	397.64
393.305	402.23
393.368	480.3
393.43	356.31
393.493	374.68
393.555	445.86
393.618	448.15
393.68	386.16
393.742	443.56
393.805	420.6
393.867	420.6
393.93	475.7
393.992	445.86
394.054	409.12
394.117	438.97
394.179	461.93
394.241	365.5
394.304	356.31
394.366	471.11
394.428	388.46
394.49	427.49
394.553	393.05
394.615	388.46
394.677	436.67
394.739	496.37
394.802	434.38
394.864	365.5
394.926	404.53
394.988	411.42
395.05	441.26
395.112	404.53
395.174	383.86
395.237	432.08
395.299	379.27
395.361	363.2
395.423	381.57
395.485	402.23
395.547	413.71
395.609	455.04
395.671	438.97
395.733	429.78
395.795	406.82
395.857	399.94
395.919	434.38
395.981	438.97
396.043	448.15
396.105	404.53
396.167	438.97
396.229	418.3
396.291	402.23
396.352	379.27
396.414	367.79
396.476	420.6
396.538	420.6
396.6	402.23
396.662	500.96
396.724	390.75
396.785	397.64
396.847	452.74
396.909	416.01
396.971	457.34
397.032	411.42
397.094	386.16
397.156	349.42
397.218	399.94
397.279	397.64
397.341	425.19
397.403	381.57
397.464	427.49
397.526	420.6
397.588	436.67
397.649	450.45
397.711	425.19
397.772	406.82
397.834	438.97
397.896	471.11
397.957	478
398.019	418.3
398.08	344.83
398.142	443.56
398.203	395.34
398.265	422.9
398.326	379.27
398.388	471.11
398.449	418.3
398.511	413.71
398.572	363.2
398.633	445.86
398.695	409.12
398.756	393.05
398.818	386.16
398.879	452.74
398.94	438.97
399.002	443.56
399.063	480.3
399.124	413.71
399.186	404.53
399.247	475.7
399.308	500.96
399.369	445.86
399.431	441.26
399.492	409.12
399.553	425.19
399.614	461.93
399.676	411.42
399.737	436.67
399.798	434.38
399.859	427.49
399.92	422.9
399.981	411.42
400.042	388.46
400.104	390.75
400.165	434.38
400.226	376.98
400.287	438.97
400.348	399.94
400.409	429.78
400.47	404.53
400.531	399.94
400.592	471.11
400.653	452.74
400.714	416.01
400.775	349.42
400.836	448.15
400.897	450.45
400.958	381.57
401.019	363.2
401.08	386.16
401.141	393.05
401.201	418.3
401.262	443.56
401.323	416.01
401.384	386.16
401.445	360.9
401.506	379.27
401.567	418.3
401.627	390.75
401.688	395.34
401.749	450.45
401.81	376.98
401.87	337.94
401.931	406.82
401.992	363.2
402.053	367.79
402.113	409.12
402.174	379.27
402.235	436.67
402.295	416.01
402.356	363.2
402.417	383.86
402.477	326.46
402.538	356.31
402.598	436.67
402.659	471.11
402.719	379.27
402.78	411.42
402.841	356.31
402.901	425.19
402.962	376.98
403.022	409.12
403.083	388.46
403.143	360.9
403.204	395.34
403.264	381.57
403.324	397.64
403.385	422.9
403.445	404.53
403.506	395.34
403.566	434.38
403.627	386.16
403.687	376.98
403.747	344.83
403.808	441.26
403.868	418.3
403.928	399.94
403.989	404.53
404.049	397.64
404.109	409.12
404.169	452.74
404.23	448.15
404.29	404.53
404.35	390.75
404.41	411.42
404.47	418.3
404.531	406.82
404.591	432.08
404.651	420.6
404.711	402.23
404.771	324.17
404.831	427.49
404.892	409.12
404.952	365.5
405.012	374.68
405.072	367.79
405.132	429.78
405.192	434.38
405.252	393.05
405.312	448.15
405.372	386.16
405.432	429.78
405.492	427.49
405.552	388.46
405.612	434.38
405.672	395.34
405.732	374.68
405.792	434.38
405.852	441.26
405.912	413.71
405.971	436.67
406.031	397.64
406.091	455.04
406.151	372.38
406.211	363.2
406.271	480.3
406.33	418.3
406.39	351.72
406.45	374.68
406.51	443.56
406.57	432.08
406.629	356.31
406.689	409.12
406.749	411.42
406.808	390.75
406.868	418.3
406.928	314.98
406.988	406.82
407.047	314.98
407.107	328.76
407.166	393.05
407.226	367.79
407.286	386.16
407.345	427.49
407.405	324.17
407.464	374.68
407.524	422.9
407.584	422.9
407.643	337.94
407.703	404.53
407.762	370.09
407.822	376.98
407.881	317.28
407.941	383.86
408	376.98
408.059	386.16
408.119	399.94
408.178	420.6
408.238	379.27
408.297	376.98
408.356	340.24
408.416	425.19
408.475	388.46
408.535	418.3
408.594	395.34
408.653	390.75
408.712	399.94
408.772	395.34
408.831	397.64
408.89	372.38
408.95	356.31
409.009	420.6
409.068	372.38
409.127	413.71
409.186	379.27
409.246	370.09
409.305	383.86
409.364	425.19
409.423	326.46
409.482	450.45
409.541	409.12
409.6	425.19
409.66	422.9
409.719	411.42
409.778	464.22
409.837	425.19
409.896	418.3
409.955	404.53
410.014	310.39
410.073	448.15
410.132	450.45
410.191	411.42
410.25	376.98
410.309	406.82
410.368	347.13
410.427	395.34
410.486	434.38
410.545	422.9
410.603	376.98
410.662	383.86
410.721	459.63
410.78	395.34
410.839	422.9
410.898	441.26
410.957	402.23
411.015	399.94
411.074	404.53
411.133	372.38
411.192	390.75
411.25	443.56
411.309	388.46
411.368	455.04
411.427	383.86
411.485	374.68
411.544	422.9
411.603	390.75
411.661	393.05
411.72	420.6
411.779	420.6
411.837	386.16
411.896	374.68
411.955	406.82
412.013	319.58
412.072	365.5
412.13	321.87
412.189	429.78
412.247	294.32
412.306	388.46
412.364	438.97
412.423	409.12
412.481	347.13
412.54	399.94
412.598	376.98
412.657	448.15
412.715	388.46
412.774	388.46
412.832	342.54
412.891	280.54
412.949	448.15
413.007	386.16
413.066	372.38
413.124	367.79
413.182	328.76
413.241	360.9
413.299	413.71
413.357	457.34
413.416	409.12
413.474	420.6
413.532	376.98
413.59	308.1
413.649	337.94
413.707	379.27
413.765	370.09
413.823	427.49
413.881	406.82
413.94	365.5
413.998	386.16
414.056	409.12
414.114	379.27
414.172	432.08
414.23	379.27
414.288	344.83
414.347	393.05
414.405	404.53
414.463	386.16
414.521	422.9
414.579	383.86
414.637	365.5
414.695	367.79
414.753	413.71
414.811	358.61
414.869	429.78
414.927	411.42
414.985	326.46
415.043	395.34
415.101	409.12
415.158	365.5
415.216	388.46
415.274	406.82
415.332	386.16
415.39	296.62
415.448	383.86
415.506	376.98
415.563	358.61
415.621	432.08
415.679	427.49
415.737	388.46
415.795	413.71
415.852	432.08
415.91	367.79
415.968	420.6
416.026	386.16
416.083	358.61
416.141	367.79
416.199	422.9
416.256	416.01
416.314	312.69
416.372	399.94
416.429	335.65
416.487	344.83
416.544	367.79
416.602	395.34
416.66	374.68
416.717	360.9
416.775	292.02
416.832	390.75
416.89	404.53
416.947	416.01
417.005	427.49
417.062	356.31
417.12	397.64
417.177	473.41
417.235	422.9
417.292	374.68
417.35	365.5
417.407	340.24
417.464	393.05
417.522	372.38
417.579	337.94
417.637	406.82
417.694	432.08
417.751	425.19
417.809	397.64
417.866	406.82
417.923	418.3
417.981	354.02
418.038	376.98
418.095	354.02
418.152	390.75
418.21	379.27
418.267	402.23
418.324	358.61
418.381	374.68
418.438	347.13
418.496	450.45
418.553	416.01
418.61	335.65
418.667	365.5
418.724	393.05
418.781	363.2
418.838	376.98
418.895	370.09
418.952	388.46
419.01	416.01
419.067	402.23
419.124	372.38
419.181	376.98
419.238	413.71
419.295	418.3
419.352	420.6
419.409	402.23
419.466	409.12
419.523	354.02
419.579	416.01
419.636	425.19
419.693	429.78
419.75	429.78
419.807	397.64
419.864	399.94
419.921	367.79
419.978	370.09
420.034	337.94
420.091	395.34
420.148	360.9
420.205	441.26
420.262	372.38
420.318	360.9
420.375	386.16
420.432	418.3
420.489	413.71
420.545	411.42
420.602	432.08
420.659	404.53
420.715	356.31
420.772	427.49
420.829	379.27
420.885	376.98
420.942	399.94
420.999	397.64
421.055	411.42
421.112	409.12
421.168	349.42
421.225	374.68
421.282	399.94
421.338	402.23
421.395	383.86
421.451	413.71
421.508	360.9
421.564	402.23
421.621	475.7
421.677	356.31
421.734	390.75
421.79	386.16
421.846	388.46
421.903	429.78
421.959	374.68
422.016	397.64
422.072	317.28
422.128	404.53
422.185	356.31
422.241	411.42
422.297	404.53
422.354	374.68
422.41	372.38
422.466	374.68
422.523	420.6
422.579	321.87
422.635	365.5
422.691	406.82
422.748	342.54
422.804	393.05
422.86	450.45
422.916	379.27
422.972	354.02
423.029	349.42
423.085	379.27
423.141	381.57
423.197	349.42
423.253	438.97
423.309	455.04
423.365	404.53
423.421	351.72
423.477	363.2
423.533	383.86
423.589	383.86
423.645	409.12
423.701	312.69
423.757	365.5
423.813	370.09
423.869	411.42
423.925	416.01
423.981	344.83
424.037	365.5
424.093	436.67
424.149	429.78
424.205	372.38
424.261	393.05
424.317	319.58
424.373	438.97
424.428	411.42
424.484	370.09
424.54	347.13
424.596	411.42
424.652	397.64
424.708	383.86
424.763	340.24
424.819	360.9
424.875	429.78
424.931	432.08
424.986	328.76
425.042	413.71
425.098	376.98
425.153	379.27
425.209	331.06
425.265	365.5
425.32	376.98
425.376	308.1
425.432	372.38
425.487	372.38
425.543	374.68
425.598	455.04
425.654	365.5
425.709	443.56
425.765	328.76
425.82	356.31
425.876	337.94
425.932	347.13
425.987	340.24
426.042	420.6
426.098	393.05
426.153	393.05
426.209	351.72
426.264	349.42
426.32	310.39
426.375	342.54
426.43	383.86
426.486	340.24
426.541	390.75
426.597	305.8
426.652	390.75
426.707	314.98
426.763	363.2
426.818	393.05
426.873	464.22
426.928	342.54
426.984	335.65
427.039	429.78
427.094	351.72
427.149	356.31
427.205	395.34
427.26	365.5
427.315	356.31
427.37	321.87
427.425	370.09
427.48	413.71
427.536	337.94
427.591	411.42
427.646	367.79
427.701	376.98
427.756	386.16
427.811	324.17
427.866	416.01
427.921	358.61
427.976	413.71
428.031	399.94
428.086	340.24
428.141	367.79
428.196	399.94
428.251	409.12
428.306	365.5
428.361	298.91
428.416	386.16
428.471	360.9
428.526	319.58
428.581	365.5
428.636	416.01
428.691	367.79
428.745	331.06
428.8	333.35
428.855	383.86
428.91	376.98
428.965	321.87
429.02	390.75
429.074	372.38
429.129	383.86
429.184	381.57
429.239	303.5
429.293	383.86
429.348	356.31
429.403	438.97
429.457	379.27
429.512	358.61
429.567	383.86
429.621	351.72
429.676	342.54
429.731	363.2
429.785	422.9
429.84	337.94
429.895	395.34
429.949	367.79
430.004	356.31
430.058	367.79
430.113	356.31
430.167	363.2
430.222	335.65
430.276	342.54
430.331	432.08
430.385	365.5
430.44	351.72
430.494	374.68
430.549	390.75
430.603	376.98
430.657	434.38
430.712	358.61
430.766	402.23
430.821	383.86
430.875	344.83
430.929	381.57
430.984	326.46
431.038	425.19
431.092	434.38
431.147	429.78
431.201	374.68
431.255	347.13
431.309	367.79
431.364	409.12
431.418	406.82
431.472	425.19
431.526	351.72
431.581	344.83
431.635	448.15
431.689	340.24
431.743	399.94
431.797	418.3
431.851	434.38
431.906	379.27
431.96	413.71
432.014	351.72
432.068	333.35
432.122	409.12
432.176	344.83
432.23	395.34
432.284	386.16
432.338	372.38
432.392	342.54
432.446	379.27
432.5	404.53
432.554	381.57
432.608	434.38
432.662	344.83
432.716	404.53
432.77	321.87
432.824	287.43
432.878	363.2
432.931	420.6
432.985	344.83
433.039	372.38
433.093	358.61
433.147	425.19
433.201	347.13
433.254	301.21
433.308	324.17
433.362	404.53
433.416	409.12
433.47	324.17
433.523	337.94
433.577	399.94
433.631	381.57
433.684	342.54
433.738	432.08
433.792	393.05
433.846	360.9
433.899	351.72
433.953	381.57
434.006	413.71
434.06	351.72
434.114	367.79
434.167	367.79
434.221	367.79
