Data from FLMS155811_12-37-59-702.txt Node
Date: Mon Mar 23 12:37:59 MDT 2020
User: ECEn Student
Spectrometer: FLMS15581
Trigger mode: 0
Integration Time (sec): 1.200000E-1
Scans to average: 1
Electric dark correction enabled: true
Nonlinearity correction enabled: false
Boxcar width: 0
XAxis mode: Wavelengths
Number of Pixels in Spectrum: 2048
>>>>>Begin Spectral Data<<<<<
298.026	-47.07
298.106	-47.07
298.185	-47.07
298.265	-56.25
298.344	-74.62
298.424	-35.59
298.503	-65.44
298.583	-104.47
298.662	-86.1
298.741	-35.59
298.821	-33.29
298.9	-76.92
298.98	-26.4
299.059	-12.63
299.138	-19.52
299.217	40.18
299.297	42.48
299.376	86.1
299.455	102.17
299.535	65.44
299.614	159.57
299.693	120.54
299.772	95.28
299.852	177.94
299.931	219.27
300.01	205.49
300.089	182.53
300.168	265.19
300.247	288.15
300.327	249.12
300.406	256.01
300.485	327.18
300.564	290.45
300.643	315.7
300.722	278.97
300.801	354.73
300.88	405.25
300.959	340.96
301.038	343.25
301.117	338.66
301.196	368.51
301.275	311.11
301.354	379.99
301.433	334.07
301.512	451.17
301.591	416.73
301.67	382.29
301.749	389.17
301.828	421.32
301.907	324.89
301.985	343.25
302.064	373.1
302.143	398.36
302.222	483.31
302.301	375.4
302.38	384.58
302.458	409.84
302.537	324.89
302.616	322.59
302.695	350.14
302.773	336.37
302.852	336.37
302.931	343.25
303.01	375.4
303.088	430.5
303.167	340.96
303.246	336.37
303.324	398.36
303.403	354.73
303.481	331.77
303.56	311.11
303.639	299.63
303.717	370.81
303.796	340.96
303.874	370.81
303.953	400.65
304.032	340.96
304.11	311.11
304.189	324.89
304.267	329.48
304.346	290.45
304.424	311.11
304.502	299.63
304.581	366.21
304.659	350.14
304.738	350.14
304.816	350.14
304.895	340.96
304.973	377.69
305.051	375.4
305.13	265.19
305.208	448.87
305.286	384.58
305.365	315.7
305.443	313.41
305.521	299.63
305.6	308.81
305.678	354.73
305.756	343.25
305.834	338.66
305.913	400.65
305.991	308.81
306.069	322.59
306.147	347.85
306.225	340.96
306.304	359.33
306.382	327.18
306.46	375.4
306.538	354.73
306.616	398.36
306.694	407.54
306.772	308.81
306.85	373.1
306.929	336.37
307.007	324.89
307.085	329.48
307.163	318
307.241	359.33
307.319	400.65
307.397	393.77
307.475	345.55
307.553	285.85
307.631	398.36
307.709	373.1
307.786	382.29
307.864	368.51
307.942	320.29
308.02	370.81
308.098	322.59
308.176	318
308.254	366.21
308.332	345.55
308.409	311.11
308.487	334.07
308.565	336.37
308.643	363.92
308.721	327.18
308.798	368.51
308.876	370.81
308.954	359.33
309.032	295.04
309.109	359.33
309.187	357.03
309.265	366.21
309.342	402.95
309.42	407.54
309.498	366.21
309.575	313.41
309.653	359.33
309.731	373.1
309.808	425.91
309.886	377.69
309.963	347.85
310.041	338.66
310.119	304.22
310.196	412.13
310.274	352.44
310.351	340.96
310.429	363.92
310.506	311.11
310.584	400.65
310.661	320.29
310.738	407.54
310.816	295.04
310.893	336.37
310.971	281.26
311.048	400.65
311.126	402.95
311.203	370.81
311.28	345.55
311.358	340.96
311.435	350.14
311.512	359.33
311.59	324.89
311.667	386.88
311.744	375.4
311.821	370.81
311.899	306.52
311.976	375.4
312.053	334.07
312.13	322.59
312.208	320.29
312.285	402.95
312.362	423.61
312.439	366.21
312.516	375.4
312.593	359.33
312.671	400.65
312.748	329.48
312.825	386.88
312.902	409.84
312.979	407.54
313.056	373.1
313.133	368.51
313.21	338.66
313.287	405.25
313.364	389.17
313.441	363.92
313.518	379.99
313.595	331.77
313.672	435.09
313.749	343.25
313.826	350.14
313.903	416.73
313.98	357.03
314.057	435.09
314.134	389.17
314.211	334.07
314.287	389.17
314.364	414.43
314.441	370.81
314.518	297.33
314.595	398.36
314.672	402.95
314.748	338.66
314.825	338.66
314.902	347.85
314.979	338.66
315.055	405.25
315.132	359.33
315.209	350.14
315.286	414.43
315.362	382.29
315.439	334.07
315.516	379.99
315.592	416.73
315.669	430.5
315.746	368.51
315.822	370.81
315.899	357.03
315.975	343.25
316.052	322.59
316.128	352.44
316.205	407.54
316.282	469.53
316.358	366.21
316.435	421.32
316.511	366.21
316.588	379.99
316.664	361.62
316.741	363.92
316.817	419.02
316.893	373.1
316.97	306.52
317.046	412.13
317.123	368.51
317.199	396.06
317.275	318
317.352	375.4
317.428	340.96
317.504	379.99
317.581	361.62
317.657	414.43
317.733	405.25
317.81	347.85
317.886	343.25
317.962	398.36
318.038	402.95
318.115	347.85
318.191	400.65
318.267	320.29
318.343	357.03
318.419	359.33
318.496	363.92
318.572	400.65
318.648	308.81
318.724	350.14
318.8	320.29
318.876	331.77
318.952	377.69
319.028	446.57
319.105	315.7
319.181	391.47
319.257	357.03
319.333	324.89
319.409	340.96
319.485	347.85
319.561	396.06
319.637	285.85
319.713	499.38
319.789	283.56
319.865	391.47
319.94	425.91
320.016	453.46
320.092	347.85
320.168	331.77
320.244	340.96
320.32	366.21
320.396	393.77
320.472	423.61
320.547	412.13
320.623	389.17
320.699	451.17
320.775	377.69
320.851	402.95
320.926	405.25
321.002	389.17
321.078	357.03
321.154	425.91
321.229	377.69
321.305	398.36
321.381	329.48
321.456	464.94
321.532	320.29
321.608	343.25
321.683	311.11
321.759	313.41
321.835	414.43
321.91	396.06
321.986	370.81
322.061	354.73
322.137	361.62
322.212	407.54
322.288	320.29
322.364	370.81
322.439	391.47
322.515	448.87
322.59	398.36
322.666	350.14
322.741	379.99
322.816	350.14
322.892	368.51
322.967	412.13
323.043	421.32
323.118	375.4
323.193	347.85
323.269	412.13
323.344	414.43
323.42	336.37
323.495	414.43
323.57	382.29
323.646	414.43
323.721	421.32
323.796	460.35
323.871	361.62
323.947	359.33
324.022	407.54
324.097	400.65
324.172	398.36
324.248	416.73
324.323	375.4
324.398	402.95
324.473	405.25
324.548	370.81
324.623	329.48
324.699	345.55
324.774	363.92
324.849	435.09
324.924	444.28
324.999	363.92
325.074	405.25
325.149	363.92
325.224	476.42
325.299	402.95
325.374	382.29
325.449	357.03
325.524	368.51
325.599	391.47
325.674	451.17
325.749	428.21
325.824	386.88
325.899	416.73
325.974	368.51
326.049	366.21
326.124	386.88
326.199	421.32
326.273	297.33
326.348	448.87
326.423	345.55
326.498	329.48
326.573	391.47
326.648	398.36
326.722	432.8
326.797	318
326.872	368.51
326.947	363.92
327.021	407.54
327.096	389.17
327.171	419.02
327.245	444.28
327.32	400.65
327.395	375.4
327.47	393.77
327.544	451.17
327.619	357.03
327.693	455.76
327.768	414.43
327.843	419.02
327.917	402.95
327.992	318
328.066	451.17
328.141	402.95
328.215	432.8
328.29	363.92
328.364	354.73
328.439	398.36
328.513	405.25
328.588	311.11
328.662	345.55
328.737	331.77
328.811	435.09
328.886	425.91
328.96	382.29
329.035	432.8
329.109	329.48
329.183	430.5
329.258	389.17
329.332	313.41
329.406	379.99
329.481	350.14
329.555	405.25
329.629	384.58
329.704	375.4
329.778	370.81
329.852	375.4
329.926	292.74
330.001	441.98
330.075	469.53
330.149	402.95
330.223	304.22
330.297	409.84
330.372	389.17
330.446	448.87
330.52	400.65
330.594	347.85
330.668	377.69
330.742	347.85
330.816	405.25
330.89	423.61
330.964	373.1
331.038	338.66
331.113	368.51
331.187	389.17
331.261	430.5
331.335	391.47
331.409	359.33
331.483	435.09
331.557	343.25
331.63	396.06
331.704	455.76
331.778	444.28
331.852	462.65
331.926	375.4
332	393.77
332.074	391.47
332.148	444.28
332.222	402.95
332.295	409.84
332.369	396.06
332.443	409.84
332.517	370.81
332.591	396.06
332.665	373.1
332.738	334.07
332.812	428.21
332.886	416.73
332.959	412.13
333.033	350.14
333.107	393.77
333.181	483.31
333.254	379.99
333.328	345.55
333.402	389.17
333.475	414.43
333.549	359.33
333.622	366.21
333.696	409.84
333.77	439.69
333.843	389.17
333.917	416.73
333.99	432.8
334.064	386.88
334.137	428.21
334.211	462.65
334.284	407.54
334.358	416.73
334.431	402.95
334.505	446.57
334.578	448.87
334.652	421.32
334.725	476.42
334.799	386.88
334.872	451.17
334.945	414.43
335.019	409.84
335.092	396.06
335.165	430.5
335.239	421.32
335.312	402.95
335.385	464.94
335.459	393.77
335.532	409.84
335.605	419.02
335.678	405.25
335.752	437.39
335.825	405.25
335.898	451.17
335.971	391.47
336.045	402.95
336.118	373.1
336.191	458.05
336.264	389.17
336.337	414.43
336.41	419.02
336.483	464.94
336.557	373.1
336.63	439.69
336.703	416.73
336.776	474.13
336.849	432.8
336.922	409.84
336.995	441.98
337.068	444.28
337.141	396.06
337.214	379.99
337.287	400.65
337.36	389.17
337.433	402.95
337.506	370.81
337.579	370.81
337.652	446.57
337.725	402.95
337.797	377.69
337.87	421.32
337.943	412.13
338.016	396.06
338.089	391.47
338.162	393.77
338.235	368.51
338.307	391.47
338.38	361.62
338.453	382.29
338.526	382.29
338.598	458.05
338.671	423.61
338.744	375.4
338.817	451.17
338.889	391.47
338.962	432.8
339.035	467.24
339.107	419.02
339.18	389.17
339.253	432.8
339.325	476.42
339.398	396.06
339.47	423.61
339.543	352.44
339.616	379.99
339.688	441.98
339.761	453.46
339.833	416.73
339.906	416.73
339.978	393.77
340.051	458.05
340.123	361.62
340.196	439.69
340.268	430.5
340.341	469.53
340.413	419.02
340.485	458.05
340.558	428.21
340.63	391.47
340.703	435.09
340.775	432.8
340.847	455.76
340.92	368.51
340.992	368.51
341.064	370.81
341.137	393.77
341.209	460.35
341.281	471.83
341.354	389.17
341.426	379.99
341.498	359.33
341.57	439.69
341.643	439.69
341.715	389.17
341.787	407.54
341.859	425.91
341.931	414.43
342.003	377.69
342.076	425.91
342.148	458.05
342.22	379.99
342.292	366.21
342.364	393.77
342.436	435.09
342.508	396.06
342.58	435.09
342.652	446.57
342.724	437.39
342.796	435.09
342.868	407.54
342.94	375.4
343.012	487.9
343.084	423.61
343.156	458.05
343.228	402.95
343.3	396.06
343.372	430.5
343.444	384.58
343.516	441.98
343.588	423.61
343.66	444.28
343.731	400.65
343.803	405.25
343.875	439.69
343.947	425.91
344.019	453.46
344.09	437.39
344.162	439.69
344.234	464.94
344.306	430.5
344.377	462.65
344.449	510.86
344.521	386.88
344.593	497.09
344.664	405.25
344.736	508.57
344.808	363.92
344.879	462.65
344.951	453.46
345.023	453.46
345.094	435.09
345.166	437.39
345.237	412.13
345.309	430.5
345.38	453.46
345.452	393.77
345.524	464.94
345.595	487.9
345.667	497.09
345.738	430.5
345.81	428.21
345.881	405.25
345.953	439.69
346.024	471.83
346.095	409.84
346.167	423.61
346.238	448.87
346.31	460.35
346.381	458.05
346.452	396.06
346.524	453.46
346.595	510.86
346.666	425.91
346.738	409.84
346.809	439.69
346.88	439.69
346.952	455.76
347.023	407.54
347.094	441.98
347.165	423.61
347.237	538.41
347.308	533.82
347.379	375.4
347.45	416.73
347.521	453.46
347.593	409.84
347.664	513.16
347.735	483.31
347.806	412.13
347.877	412.13
347.948	382.29
348.019	446.57
348.09	478.72
348.161	432.8
348.233	423.61
348.304	455.76
348.375	515.45
348.446	476.42
348.517	435.09
348.588	412.13
348.659	437.39
348.73	430.5
348.801	419.02
348.871	444.28
348.942	363.92
349.013	437.39
349.084	487.9
349.155	460.35
349.226	458.05
349.297	483.31
349.368	497.09
349.439	453.46
349.509	526.93
349.58	460.35
349.651	492.49
349.722	448.87
349.793	476.42
349.863	485.61
349.934	416.73
350.005	455.76
350.076	565.97
350.146	520.05
350.217	451.17
350.288	531.53
350.358	460.35
350.429	501.68
350.5	432.8
350.57	526.93
350.641	451.17
350.711	494.79
350.782	506.27
350.853	494.79
350.923	536.12
350.994	522.34
351.064	538.41
351.135	554.49
351.205	556.78
351.276	522.34
351.346	492.49
351.417	515.45
351.487	559.08
351.558	524.64
351.628	616.48
351.699	575.15
351.769	568.26
351.84	616.48
351.91	586.63
351.98	669.29
352.051	584.33
352.121	625.66
352.191	641.73
352.262	676.17
352.332	689.95
352.402	648.62
352.473	687.65
352.543	758.83
352.613	689.95
352.683	747.35
352.754	772.61
352.824	772.61
352.894	841.49
352.964	770.31
353.035	857.56
353.105	917.26
353.175	921.85
353.245	965.47
353.315	1006.8
353.385	1004.5
353.455	1149.15
353.526	1123.9
353.596	1045.83
353.666	1181.3
353.736	1298.39
353.806	1243.29
353.876	1261.66
353.946	1342.02
354.016	1332.83
354.086	1468.3
354.156	1459.11
354.226	1495.85
354.296	1624.43
354.366	1711.68
354.436	1668.05
354.506	1732.34
354.576	1810.4
354.645	1883.88
354.715	2092.81
354.785	2095.11
354.855	2177.77
354.925	2143.32
354.995	2354.56
355.065	2421.14
355.134	2561.2
355.204	2625.49
355.274	2703.55
355.344	2845.9
355.414	2953.82
355.483	2967.59
355.553	3077.8
355.623	3158.16
355.693	3311.99
355.762	3587.51
355.832	3640.32
355.902	3736.76
355.971	3849.26
356.041	4124.78
356.111	4326.83
356.18	4232.69
356.25	4409.49
356.319	4696.49
356.389	4788.33
356.459	4921.5
356.528	5079.92
356.598	5334.78
356.667	5481.72
356.737	5683.77
356.806	5975.36
356.876	6120.01
356.945	6227.93
357.015	6668.76
357.084	6728.46
357.154	6806.52
357.223	7061.38
357.292	7300.16
357.362	7639.97
357.431	7614.72
357.501	8163.46
357.57	8459.65
357.639	8666.29
357.709	8657.1
357.778	9095.64
357.847	9295.39
357.917	9568.62
357.986	9786.74
358.055	10268.9
358.124	10569.68
358.194	10960
358.263	11136.79
358.332	11416.91
358.401	11754.42
358.471	12238.88
358.54	12268.73
358.609	12744
358.678	12851.91
358.747	13322.6
358.816	13492.5
358.886	14066.5
358.955	14433.86
359.024	14835.67
359.093	15177.77
359.162	15795.4
359.231	15963.01
359.3	16321.18
359.369	17044.43
359.438	17358.98
359.507	17464.6
359.576	17912.32
359.645	18564.39
359.714	18787.1
359.783	19358.8
359.852	19843.26
359.921	20203.74
359.99	20704.27
360.059	21018.82
360.128	21748.95
360.197	21827.01
360.266	22538.78
360.334	23234.47
360.403	23636.27
360.472	24148.28
360.541	24494.98
360.61	24928.92
360.679	25532.77
360.747	26129.74
360.816	26641.75
360.885	27454.53
360.954	27748.42
361.022	28423.45
361.091	28763.26
361.16	29188.02
361.228	29961.78
361.297	30416.39
361.366	31286.57
361.434	31943.23
361.503	32850.16
361.572	33277.21
361.64	33555.03
361.709	34455.07
361.778	34668.6
361.846	35410.21
361.915	36252.84
361.983	37104.66
362.052	37393.96
362.12	38082.76
362.189	38702.68
362.257	39503.99
362.326	40555.56
362.394	40576.23
362.463	41650.76
362.531	41827.55
362.6	42621.97
362.668	43515.12
362.737	43779.16
362.805	44647.05
362.873	45322.08
362.942	45829.5
363.01	46832.85
363.079	46991.28
363.147	47893.61
363.215	48290.82
363.284	48958.96
363.352	49689.09
363.42	50573.05
363.488	50380.19
363.557	51103.43
363.625	51812.9
363.693	51939.18
363.761	52483.33
363.83	53185.91
363.898	53500.47
363.966	54113.5
364.034	54340.81
364.102	54623.21
364.171	54905.62
364.239	55002.06
364.307	55773.52
364.375	55881.43
364.443	56092.66
364.511	56503.65
364.579	56841.16
364.647	57249.85
364.715	57171.79
364.783	57649.36
364.851	57931.76
364.919	58262.39
364.987	58503.47
365.055	58652.71
365.123	59029.26
365.191	59206.05
365.259	59160.13
365.327	59621.63
365.395	59653.77
365.463	59814.49
365.531	60050.98
365.599	60253.03
365.667	60432.12
365.735	60489.52
365.802	60496.41
365.87	60317.32
365.938	60670.9
366.006	60879.84
366.074	61100.26
366.142	60976.27
366.209	61102.55
366.277	61224.24
366.345	61267.87
366.413	61446.96
366.48	61435.47
366.548	61550.28
366.616	61550.28
366.683	61669.67
366.751	61777.58
366.819	61779.88
366.886	61731.66
366.954	61855.64
367.022	61717.88
367.089	61869.42
367.157	61704.11
367.224	61658.19
367.292	61816.61
367.36	61632.93
367.427	61662.78
367.495	61694.92
367.562	61635.23
367.63	61561.76
367.697	61547.98
367.765	61467.62
367.832	61552.57
367.9	61293.12
367.967	61325.27
368.034	61327.56
368.102	61405.63
368.169	61394.15
368.237	61176.03
368.304	60967.09
368.371	60946.42
368.439	60934.94
368.506	60941.83
368.573	60884.43
368.641	60732.9
368.708	60686.98
368.775	60569.88
368.843	60450.49
368.91	60255.33
368.977	59963.73
369.044	60390.79
369.112	60030.32
369.179	59855.82
369.246	59968.32
369.313	59809.9
369.38	59513.72
369.448	59483.87
369.515	59355.29
369.582	59288.71
369.649	59281.82
369.716	59153.24
369.783	58981.04
369.85	58985.63
369.917	58765.22
369.984	58884.61
370.052	58760.62
370.119	58873.13
370.186	58641.23
370.253	58604.5
370.32	58324.38
370.387	58469.03
370.454	58211.88
370.521	58335.86
370.587	58326.68
370.654	58191.21
370.721	58037.38
370.788	57908.8
370.855	57722.83
370.922	57713.64
370.989	57564.4
371.056	57555.22
371.123	57164.9
371.189	57100.61
371.256	56719.47
371.323	56510.53
371.39	56290.12
371.457	56012.3
371.523	55635.75
371.59	55137.52
371.657	54597.96
371.724	54161.72
371.79	53511.95
371.857	52497.11
371.924	52001.17
371.991	50467.44
372.057	49078.35
372.124	48134.69
372.191	46369.06
372.257	45202.69
372.324	43067.4
372.39	41191.56
372.457	39389.19
372.524	37641.93
372.59	35368.88
372.657	33318.54
372.723	31174.07
372.79	29500.28
372.856	27773.68
372.923	26021.82
372.989	23985.26
373.056	22472.19
373.122	20731.82
373.189	19101.65
373.255	17701.09
373.322	16518.64
373.388	15072.15
373.454	14179.01
373.521	13056.26
373.587	11740.64
373.654	11127.61
373.72	10179.36
373.786	9396.42
373.853	8629.55
373.919	7984.37
373.985	7261.13
374.052	6551.66
374.118	6221.04
374.184	5837.6
374.25	5321
374.317	5029.41
374.383	4659.75
374.449	4416.37
374.515	4111.01
374.581	3732.16
374.648	3656.4
374.714	3442.87
374.78	3082.39
374.846	2889.53
374.912	2735.7
374.978	2611.71
375.044	2425.73
375.11	2434.92
375.177	2228.28
375.243	2085.92
375.309	1987.2
375.375	1840.25
375.441	1826.48
375.507	1677.23
375.573	1665.75
375.639	1518.81
375.705	1482.07
375.771	1374.16
375.837	1383.35
375.903	1293.8
375.968	1353.5
376.034	1252.47
376.1	1208.85
376.166	1130.78
376.232	1089.46
376.298	1055.02
376.364	1022.87
376.43	1034.35
376.495	953.99
376.561	896.59
376.627	832.3
376.693	830.01
376.759	790.98
376.824	758.83
376.89	841.49
376.956	832.3
377.022	830.01
377.087	797.86
377.153	823.12
377.219	712.91
377.284	630.25
377.35	779.5
377.416	694.54
377.481	648.62
377.547	607.29
377.613	616.48
377.678	712.91
377.744	662.4
377.809	579.74
377.875	637.14
377.94	655.51
378.006	666.99
378.071	582.04
378.137	660.1
378.202	650.92
378.268	627.96
378.333	547.6
378.399	586.63
378.464	556.78
378.53	598.11
378.595	582.04
378.661	510.86
378.726	497.09
378.791	561.37
378.857	554.49
378.922	591.22
378.987	538.41
379.053	513.16
379.118	591.22
379.183	481.01
379.249	526.93
379.314	529.23
379.379	570.56
379.444	614.18
379.51	591.22
379.575	549.89
379.64	607.29
379.705	536.12
379.771	487.9
379.836	563.67
379.901	529.23
379.966	485.61
380.031	458.05
380.096	517.75
380.161	545.3
380.227	441.98
380.292	455.76
380.357	515.45
380.422	522.34
380.487	476.42
380.552	499.38
380.617	455.76
380.682	467.24
380.747	520.05
380.812	469.53
380.877	485.61
380.942	492.49
381.007	520.05
381.072	483.31
381.137	490.2
381.202	474.13
381.266	451.17
381.331	409.84
381.396	520.05
381.461	430.5
381.526	464.94
381.591	522.34
381.656	492.49
381.72	464.94
381.785	423.61
381.85	483.31
381.915	432.8
381.979	487.9
382.044	497.09
382.109	526.93
382.174	455.76
382.238	421.32
382.303	444.28
382.368	490.2
382.432	485.61
382.497	478.72
382.562	446.57
382.626	435.09
382.691	430.5
382.756	510.86
382.82	481.01
382.885	419.02
382.949	425.91
383.014	405.25
383.078	451.17
383.143	462.65
383.208	464.94
383.272	471.83
383.337	421.32
383.401	471.83
383.465	412.13
383.53	497.09
383.594	439.69
383.659	419.02
383.723	462.65
383.788	446.57
383.852	416.73
383.916	396.06
383.981	428.21
384.045	458.05
384.109	446.57
384.174	453.46
384.238	398.36
384.302	368.51
384.367	400.65
384.431	441.98
384.495	494.79
384.56	425.91
384.624	448.87
384.688	497.09
384.752	439.69
384.816	382.29
384.881	366.21
384.945	529.23
385.009	384.58
385.073	441.98
385.137	451.17
385.201	405.25
385.265	400.65
385.33	405.25
385.394	398.36
385.458	458.05
385.522	448.87
385.586	501.68
385.65	513.16
385.714	375.4
385.778	400.65
385.842	432.8
385.906	391.47
385.97	428.21
386.034	446.57
386.098	400.65
386.162	393.77
386.226	478.72
386.29	400.65
386.354	451.17
386.417	487.9
386.481	446.57
386.545	467.24
386.609	419.02
386.673	448.87
386.737	444.28
386.8	441.98
386.864	423.61
386.928	474.13
386.992	437.39
387.056	462.65
387.119	453.46
387.183	416.73
387.247	446.57
387.31	350.14
387.374	462.65
387.438	476.42
387.502	407.54
387.565	396.06
387.629	439.69
387.692	490.2
387.756	428.21
387.82	425.91
387.883	425.91
387.947	391.47
388.01	430.5
388.074	405.25
388.138	402.95
388.201	402.95
388.265	382.29
388.328	419.02
388.392	384.58
388.455	423.61
388.519	382.29
388.582	455.76
388.645	428.21
388.709	451.17
388.772	425.91
388.836	423.61
388.899	368.51
388.962	432.8
389.026	499.38
389.089	471.83
389.153	448.87
389.216	430.5
389.279	407.54
389.343	398.36
389.406	393.77
389.469	359.33
389.532	350.14
389.596	425.91
389.659	347.85
389.722	432.8
389.785	343.25
389.848	458.05
389.912	370.81
389.975	368.51
390.038	448.87
390.101	393.77
390.164	373.1
390.227	448.87
390.291	398.36
390.354	359.33
390.417	432.8
390.48	441.98
390.543	409.84
390.606	402.95
390.669	379.99
390.732	357.03
390.795	389.17
390.858	350.14
390.921	423.61
390.984	430.5
391.047	446.57
391.11	379.99
391.173	444.28
391.236	407.54
391.299	368.51
391.362	432.8
391.424	398.36
391.487	384.58
391.55	458.05
391.613	398.36
391.676	375.4
391.739	402.95
391.802	437.39
391.864	432.8
391.927	402.95
391.99	419.02
392.053	386.88
392.115	331.77
392.178	375.4
392.241	469.53
392.304	400.65
392.366	439.69
392.429	458.05
392.492	377.69
392.554	448.87
392.617	428.21
392.68	451.17
392.742	359.33
392.805	370.81
392.867	373.1
392.93	409.84
392.992	370.81
393.055	398.36
393.118	435.09
393.18	409.84
393.243	419.02
393.305	444.28
393.368	389.17
393.43	471.83
393.493	382.29
393.555	350.14
393.618	435.09
393.68	402.95
393.742	379.99
393.805	446.57
393.867	384.58
393.93	361.62
393.992	368.51
394.054	435.09
394.117	373.1
394.179	382.29
394.241	412.13
394.304	384.58
394.366	398.36
394.428	391.47
394.49	464.94
394.553	391.47
394.615	345.55
394.677	435.09
394.739	391.47
394.802	382.29
394.864	336.37
394.926	359.33
394.988	398.36
395.05	350.14
395.112	368.51
395.174	446.57
395.237	370.81
395.299	444.28
395.361	366.21
395.423	384.58
395.485	345.55
395.547	412.13
395.609	366.21
395.671	386.88
395.733	382.29
395.795	386.88
395.857	340.96
395.919	363.92
395.981	361.62
396.043	391.47
396.105	379.99
396.167	389.17
396.229	345.55
396.291	421.32
396.352	419.02
396.414	384.58
396.476	352.44
396.538	373.1
396.6	396.06
396.662	377.69
396.724	368.51
396.785	402.95
396.847	400.65
396.909	481.01
396.971	389.17
397.032	421.32
397.094	396.06
397.156	382.29
397.218	389.17
397.279	453.46
397.341	386.88
397.403	384.58
397.464	446.57
397.526	389.17
397.588	352.44
397.649	430.5
397.711	373.1
397.772	396.06
397.834	402.95
397.896	407.54
397.957	318
398.019	322.59
398.08	402.95
398.142	382.29
398.203	430.5
398.265	460.35
398.326	347.85
398.388	414.43
398.449	414.43
398.511	428.21
398.572	366.21
398.633	295.04
398.695	384.58
398.756	402.95
398.818	363.92
398.879	414.43
398.94	421.32
399.002	414.43
399.063	373.1
399.124	414.43
399.186	379.99
399.247	363.92
399.308	421.32
399.369	382.29
399.431	421.32
399.492	370.81
399.553	354.73
399.614	391.47
399.676	350.14
399.737	345.55
399.798	389.17
399.859	386.88
399.92	373.1
399.981	407.54
400.042	405.25
400.104	398.36
400.165	347.85
400.226	382.29
400.287	389.17
400.348	366.21
400.409	439.69
400.47	373.1
400.531	414.43
400.592	407.54
400.653	409.84
400.714	409.84
400.775	377.69
400.836	347.85
400.897	361.62
400.958	386.88
401.019	368.51
401.08	389.17
401.141	409.84
401.201	416.73
401.262	334.07
401.323	407.54
401.384	407.54
401.445	382.29
401.506	347.85
401.567	402.95
401.627	435.09
401.688	389.17
401.749	386.88
401.81	363.92
401.87	345.55
401.931	421.32
401.992	379.99
402.053	393.77
402.113	331.77
402.174	396.06
402.235	409.84
402.295	398.36
402.356	391.47
402.417	334.07
402.477	402.95
402.538	377.69
402.598	398.36
402.659	419.02
402.719	389.17
402.78	382.29
402.841	366.21
402.901	393.77
402.962	354.73
403.022	347.85
403.083	318
403.143	345.55
403.204	391.47
403.264	373.1
403.324	437.39
403.385	386.88
403.445	345.55
403.506	313.41
403.566	405.25
403.627	322.59
403.687	421.32
403.747	437.39
403.808	357.03
403.868	439.69
403.928	425.91
403.989	359.33
404.049	322.59
404.109	391.47
404.169	322.59
404.23	347.85
404.29	324.89
404.35	398.36
404.41	368.51
404.47	407.54
404.531	350.14
404.591	389.17
404.651	352.44
404.711	347.85
404.771	416.73
404.831	402.95
404.892	334.07
404.952	338.66
405.012	373.1
405.072	357.03
405.132	373.1
405.192	370.81
405.252	373.1
405.312	354.73
405.372	336.37
405.432	354.73
405.492	407.54
405.552	391.47
405.612	336.37
405.672	313.41
405.732	354.73
405.792	398.36
405.852	350.14
405.912	313.41
405.971	324.89
406.031	428.21
406.091	379.99
406.151	393.77
406.211	366.21
406.271	357.03
406.33	359.33
406.39	375.4
406.45	276.67
406.51	409.84
406.57	340.96
406.629	370.81
406.689	391.47
406.749	379.99
406.808	363.92
406.868	398.36
406.928	352.44
406.988	368.51
407.047	343.25
407.107	409.84
407.166	389.17
407.226	366.21
407.286	324.89
407.345	357.03
407.405	386.88
407.464	366.21
407.524	331.77
407.584	375.4
407.643	354.73
407.703	389.17
407.762	354.73
407.822	366.21
407.881	382.29
407.941	423.61
408	352.44
408.059	423.61
408.119	336.37
408.178	354.73
408.238	435.09
408.297	375.4
408.356	269.78
408.416	373.1
408.475	386.88
408.535	329.48
408.594	373.1
408.653	347.85
408.712	354.73
408.772	439.69
408.831	428.21
408.89	400.65
408.95	405.25
409.009	386.88
409.068	359.33
409.127	405.25
409.186	400.65
409.246	320.29
409.305	329.48
409.364	402.95
409.423	357.03
409.482	354.73
409.541	423.61
409.6	396.06
409.66	345.55
409.719	336.37
409.778	345.55
409.837	375.4
409.896	398.36
409.955	382.29
410.014	322.59
410.073	432.8
410.132	414.43
410.191	370.81
410.25	363.92
410.309	357.03
410.368	357.03
410.427	407.54
410.486	357.03
410.545	391.47
410.603	345.55
410.662	368.51
410.721	370.81
410.78	313.41
410.839	391.47
410.898	382.29
410.957	407.54
411.015	366.21
411.074	384.58
411.133	350.14
411.192	373.1
411.25	398.36
411.309	382.29
411.368	396.06
411.427	274.37
411.485	340.96
411.544	329.48
411.603	391.47
411.661	412.13
411.72	345.55
411.779	398.36
411.837	405.25
411.896	336.37
411.955	318
412.013	373.1
412.072	366.21
412.13	338.66
412.189	363.92
412.247	359.33
412.306	386.88
412.364	322.59
412.423	359.33
412.481	340.96
412.54	439.69
412.598	448.87
412.657	384.58
412.715	375.4
412.774	320.29
412.832	327.18
412.891	414.43
412.949	400.65
413.007	340.96
413.066	428.21
413.124	345.55
413.182	343.25
413.241	391.47
413.299	384.58
413.357	377.69
413.416	359.33
413.474	370.81
413.532	345.55
413.59	336.37
413.649	357.03
413.707	352.44
413.765	370.81
413.823	354.73
413.881	345.55
413.94	363.92
413.998	352.44
414.056	407.54
414.114	350.14
414.172	363.92
414.23	368.51
414.288	347.85
414.347	357.03
414.405	324.89
414.463	368.51
414.521	260.6
414.579	331.77
414.637	405.25
414.695	375.4
414.753	329.48
414.811	412.13
414.869	366.21
414.927	384.58
414.985	345.55
415.043	373.1
415.101	377.69
415.158	409.84
415.216	354.73
415.274	345.55
415.332	373.1
415.39	375.4
415.448	354.73
415.506	368.51
415.563	345.55
415.621	350.14
415.679	359.33
415.737	327.18
415.795	357.03
415.852	432.8
415.91	435.09
415.968	357.03
416.026	336.37
416.083	428.21
416.141	416.73
416.199	324.89
416.256	359.33
416.314	414.43
416.372	354.73
416.429	343.25
416.487	370.81
416.544	357.03
416.602	315.7
416.66	386.88
416.717	352.44
416.775	292.74
416.832	340.96
416.89	366.21
416.947	370.81
417.005	361.62
417.062	373.1
417.12	361.62
417.177	354.73
417.235	416.73
417.292	384.58
417.35	382.29
417.407	347.85
417.464	318
417.522	375.4
417.579	368.51
417.637	363.92
417.694	304.22
417.751	386.88
417.809	423.61
417.866	343.25
417.923	396.06
417.981	329.48
418.038	393.77
418.095	370.81
418.152	402.95
418.21	357.03
418.267	359.33
418.324	386.88
418.381	324.89
418.438	345.55
418.496	363.92
418.553	347.85
418.61	352.44
418.667	311.11
418.724	322.59
418.781	359.33
418.838	308.81
418.895	379.99
418.952	308.81
419.01	352.44
419.067	375.4
419.124	377.69
419.181	306.52
419.238	400.65
419.295	375.4
419.352	414.43
419.409	379.99
419.466	370.81
419.523	313.41
419.579	318
419.636	347.85
419.693	412.13
419.75	384.58
419.807	375.4
419.864	391.47
419.921	377.69
419.978	354.73
420.034	377.69
420.091	359.33
420.148	377.69
420.205	338.66
420.262	354.73
420.318	402.95
420.375	357.03
420.432	379.99
420.489	432.8
420.545	419.02
420.602	350.14
420.659	391.47
420.715	421.32
420.772	407.54
420.829	373.1
420.885	384.58
420.942	299.63
420.999	359.33
421.055	361.62
421.112	368.51
421.168	373.1
421.225	359.33
421.282	347.85
421.338	315.7
421.395	421.32
421.451	419.02
421.508	292.74
421.564	327.18
421.621	324.89
421.677	400.65
421.734	354.73
421.79	322.59
421.846	396.06
421.903	357.03
421.959	322.59
422.016	350.14
422.072	315.7
422.128	306.52
422.185	345.55
422.241	384.58
422.297	375.4
422.354	375.4
422.41	402.95
422.466	405.25
422.523	354.73
422.579	345.55
422.635	409.84
422.691	432.8
422.748	430.5
422.804	359.33
422.86	391.47
422.916	304.22
422.972	361.62
423.029	340.96
423.085	402.95
423.141	331.77
423.197	343.25
423.253	324.89
423.309	384.58
423.365	322.59
423.421	338.66
423.477	393.77
423.533	347.85
423.589	267.49
423.645	389.17
423.701	400.65
423.757	350.14
423.813	432.8
423.869	347.85
423.925	357.03
423.981	368.51
424.037	311.11
424.093	366.21
424.149	308.81
424.205	396.06
424.261	301.93
424.317	363.92
424.373	304.22
424.428	359.33
424.484	402.95
424.54	354.73
424.596	405.25
424.652	357.03
424.708	361.62
424.763	336.37
424.819	363.92
424.875	311.11
424.931	350.14
424.986	334.07
425.042	368.51
425.098	350.14
425.153	318
425.209	334.07
425.265	260.6
425.32	315.7
425.376	320.29
425.432	290.45
425.487	306.52
425.543	370.81
425.598	407.54
425.654	345.55
425.709	368.51
425.765	366.21
425.82	334.07
425.876	407.54
425.932	308.81
425.987	366.21
426.042	396.06
426.098	402.95
426.153	347.85
426.209	373.1
426.264	354.73
426.32	361.62
426.375	363.92
426.43	276.67
426.486	267.49
426.541	272.08
426.597	366.21
426.652	318
426.707	407.54
426.763	338.66
426.818	373.1
426.873	419.02
426.928	350.14
426.984	375.4
427.039	382.29
427.094	322.59
427.149	368.51
427.205	301.93
427.26	359.33
427.315	350.14
427.37	407.54
427.425	338.66
427.48	313.41
427.536	292.74
427.591	398.36
427.646	338.66
427.701	396.06
427.756	379.99
427.811	354.73
427.866	347.85
427.921	428.21
427.976	343.25
428.031	352.44
428.086	327.18
428.141	400.65
428.196	451.17
428.251	361.62
428.306	306.52
428.361	327.18
428.416	377.69
428.471	361.62
428.526	379.99
428.581	357.03
428.636	363.92
428.691	361.62
428.745	347.85
428.8	311.11
428.855	409.84
428.91	244.53
428.965	324.89
429.02	331.77
429.074	318
429.129	391.47
429.184	336.37
429.239	347.85
429.293	352.44
429.348	391.47
429.403	331.77
429.457	428.21
429.512	345.55
429.567	366.21
429.621	368.51
429.676	352.44
429.731	363.92
429.785	400.65
429.84	308.81
429.895	398.36
429.949	379.99
430.004	304.22
430.058	391.47
430.113	331.77
430.167	347.85
430.222	393.77
430.276	379.99
430.331	382.29
430.385	357.03
430.44	396.06
430.494	400.65
430.549	324.89
430.603	299.63
430.657	308.81
430.712	324.89
430.766	318
430.821	393.77
430.875	354.73
430.929	423.61
430.984	347.85
431.038	354.73
431.092	354.73
431.147	327.18
431.201	384.58
431.255	336.37
431.309	331.77
431.364	336.37
431.418	396.06
431.472	322.59
431.526	377.69
431.581	315.7
431.635	313.41
431.689	389.17
431.743	439.69
431.797	375.4
431.851	361.62
431.906	343.25
431.96	379.99
432.014	405.25
432.068	345.55
432.122	421.32
432.176	352.44
432.23	352.44
432.284	375.4
432.338	377.69
432.392	377.69
432.446	352.44
432.5	347.85
432.554	377.69
432.608	366.21
432.662	343.25
432.716	338.66
432.77	295.04
432.824	370.81
432.878	386.88
432.931	338.66
432.985	363.92
433.039	269.78
433.093	338.66
433.147	393.77
433.201	331.77
433.254	327.18
433.308	393.77
433.362	368.51
433.416	373.1
433.47	306.52
433.523	276.67
433.577	295.04
433.631	347.85
433.684	327.18
433.738	379.99
433.792	375.4
433.846	357.03
433.899	345.55
433.953	345.55
434.006	315.7
434.06	345.55
434.114	382.29
434.167	382.29
434.221	382.29
