Data from FLMS155811_14-10-40-816.txt Node
Date: Tue May 12 14:10:40 MDT 2026
User: ecestudent
Spectrometer: FLMS15581
Trigger mode: 0
Integration Time (sec): 4.000000E-1
Scans to average: 20
Electric dark correction enabled: true
Nonlinearity correction enabled: false
Boxcar width: 0
XAxis mode: Wavelengths
Number of Pixels in Spectrum: 2048
>>>>>Begin Spectral Data<<<<<
298.026	-136.61
298.106	-136.61
298.185	-136.61
298.265	-165.54
298.344	-134.32
298.424	-139.94
298.503	-95.28
298.583	-104.58
298.662	-83.35
298.741	-77.15
298.821	-70.26
298.9	-34.1
298.98	-33.06
299.059	2.3
299.138	30.19
299.217	39.49
299.297	64.4
299.376	91.04
299.455	114.69
299.535	130.53
299.614	165.08
299.693	163.94
299.772	188.85
299.852	209.4
299.931	218.01
300.01	240.74
300.089	228.8
300.168	280.57
300.247	289.64
300.327	292.28
300.406	291.82
300.485	306.4
300.564	318.69
300.643	312.49
300.722	347.04
300.801	336.48
300.88	354.16
300.959	332.35
301.038	355.88
301.117	332.58
301.196	339.12
301.275	338.32
301.354	366.21
301.433	369.43
301.512	356.23
301.591	365.64
301.67	357.49
301.749	413.17
301.828	352.44
301.907	325.34
301.985	352.32
302.064	347.39
302.143	333.27
302.222	375.51
302.301	340.15
302.38	322.47
302.458	341.76
302.537	328.33
302.616	335.45
302.695	339.24
302.773	326.72
302.852	321.33
302.931	313.86
303.01	314.55
303.088	326.26
303.167	319.49
303.246	326.38
303.324	330.17
303.403	324.54
303.481	320.87
303.56	336.59
303.639	323.62
303.717	354.39
303.796	349.11
303.874	330.85
303.953	356.46
304.032	293.89
304.11	310.31
304.189	343.83
304.267	337.97
304.346	338.66
304.424	359.44
304.502	315.13
304.581	329.94
304.659	310.88
304.738	348.65
304.816	334.76
304.895	310.19
304.973	335.22
305.051	333.72
305.13	329.59
305.208	327.53
305.286	307.78
305.365	325.46
305.443	319.26
305.521	327.41
305.6	338.66
305.678	328.9
305.756	331.31
305.834	348.08
305.913	349.57
305.991	339.92
306.069	331.77
306.147	340.38
306.225	316.39
306.304	345.43
306.382	351.52
306.46	319.95
306.538	329.13
306.616	341.53
306.694	341.42
306.772	330.4
306.85	316.39
306.929	314.55
307.007	320.18
307.085	353.47
307.163	350.03
307.241	358.18
307.319	334.53
307.397	326.38
307.475	344.98
307.553	342.45
307.631	330.51
307.709	338.43
307.786	330.74
307.864	328.44
307.942	341.42
308.02	322.36
308.098	355.42
308.176	349.45
308.254	366.56
308.332	346.47
308.409	341.88
308.487	340.27
308.565	338.2
308.643	334.64
308.721	354.27
308.798	341.42
308.876	346.24
308.954	339.35
309.032	342.79
309.109	334.87
309.187	326.03
309.265	366.21
309.342	367.71
309.42	331.77
309.498	336.94
309.575	347.04
309.653	350.49
309.731	331.54
309.808	321.44
309.886	354.62
309.963	338.89
310.041	362.43
310.119	344.75
310.196	337.05
310.274	337.86
310.351	333.61
310.429	341.07
310.506	344.75
310.584	355.42
310.661	338.78
310.738	331.89
310.816	327.41
310.893	356.69
310.971	361.28
311.048	330.28
311.126	342.68
311.203	336.59
311.28	338.09
311.358	324.2
311.435	333.38
311.512	365.75
311.59	342.68
311.667	330.05
311.744	333.15
311.821	347.96
311.899	352.55
311.976	343.14
312.053	346.47
312.13	365.07
312.208	332.81
312.285	362.65
312.362	362.65
312.439	333.04
312.516	334.18
312.593	352.32
312.671	352.09
312.748	338.89
312.825	345.43
312.902	329.02
312.979	346.58
313.056	350.37
313.133	342.45
313.21	339.81
313.287	345.32
313.364	335.91
313.441	361.51
313.518	343.83
313.595	357.37
313.672	374.48
313.749	346.01
313.826	360.93
313.903	353.24
313.98	349.91
314.057	349.45
314.134	356.46
314.211	367.48
314.287	337.4
314.364	347.73
314.441	378.84
314.518	359.67
314.595	349.68
314.672	346.24
314.748	357.26
314.825	346.24
314.902	340.73
314.979	358.75
315.055	343.94
315.132	368.97
315.209	367.59
315.286	341.88
315.362	383.2
315.439	357.95
315.516	352.9
315.592	376.55
315.669	360.36
315.746	371.84
315.822	368.85
315.899	359.56
315.975	373.56
316.052	361.28
316.128	345.09
316.205	355.08
316.282	390.55
316.358	336.02
316.435	500.07
316.511	361.74
316.588	351.63
316.664	342.34
316.741	415.92
316.817	372.53
316.893	356.11
316.97	336.71
317.046	352.55
317.123	340.84
317.199	365.87
317.275	351.63
317.352	349.91
317.428	354.5
317.504	338.2
317.581	344.63
317.657	372.18
317.733	363.57
317.81	352.09
317.886	362.31
317.962	356.34
318.038	388.48
318.115	357.95
318.191	338.2
318.267	348.88
318.343	341.07
318.419	365.18
318.496	357.6
318.572	354.85
318.648	378.73
318.724	350.95
318.8	345.32
318.876	351.63
318.952	344.75
319.028	360.47
319.105	355.65
319.181	336.82
319.257	362.65
319.333	352.32
319.409	352.9
319.485	361.62
319.561	346.58
319.637	362.77
319.713	348.99
319.789	348.19
319.865	359.44
319.94	351.75
320.016	347.16
320.092	355.42
320.168	351.63
320.244	354.62
320.32	347.96
320.396	355.31
320.472	351.06
320.547	370.23
320.623	355.08
320.699	371.15
320.775	364.84
320.851	358.41
320.926	385.96
321.002	348.76
321.078	341.76
321.154	347.62
321.229	369.54
321.305	369.08
321.381	361.74
321.456	357.83
321.532	350.14
321.608	361.74
321.683	336.59
321.759	334.53
321.835	368.51
321.91	367.59
321.986	368.28
322.061	373.68
322.137	375.86
322.212	363.57
322.288	354.39
322.364	361.39
322.439	387.57
322.515	365.75
322.59	354.5
322.666	398.7
322.741	388.48
322.816	354.62
322.892	365.07
322.967	386.76
323.043	356.11
323.118	361.05
323.193	363.69
323.269	349.8
323.344	341.19
323.42	373.68
323.495	368.97
323.57	347.96
323.646	361.97
323.721	375.86
323.796	354.85
323.871	351.29
323.947	353.01
324.022	370.92
324.097	356.34
324.172	353.13
324.248	365.18
324.323	358.41
324.398	412.25
324.473	353.36
324.548	345.78
324.623	369.43
324.699	374.02
324.774	382.29
324.849	371.49
324.924	359.1
324.999	370.35
325.074	362.54
325.149	361.39
325.224	391.24
325.299	1121.26
325.374	420.28
325.449	367.25
325.524	350.37
325.599	358.87
325.674	358.06
325.749	386.76
325.824	353.59
325.899	362.43
325.974	367.25
326.049	357.95
326.124	399.05
326.199	361.51
326.273	364.15
326.348	395.95
326.423	373.91
326.498	374.82
326.573	361.51
326.648	381.02
326.722	353.93
326.797	364.49
326.872	364.49
326.947	354.04
327.021	348.99
327.096	351.75
327.171	369.43
327.245	361.62
327.32	351.17
327.395	352.44
327.47	358.06
327.544	372.53
327.619	358.52
327.693	461.38
327.768	369.89
327.843	358.75
327.917	347.04
327.992	360.93
328.066	356.91
328.141	336.14
328.215	366.56
328.29	353.47
328.364	363.11
328.439	379.65
328.513	392.73
328.588	363
328.662	354.04
328.737	355.42
328.811	341.53
328.886	356.46
328.96	357.95
329.035	360.82
329.109	349.22
329.183	375.05
329.258	381.37
329.332	360.82
329.406	363.92
329.481	366.56
329.555	359.67
329.629	365.64
329.704	349.8
329.778	359.33
329.852	348.3
329.926	355.31
330.001	374.94
330.075	356.69
330.149	385.61
330.223	373.1
330.297	371.26
330.372	372.41
330.446	364.61
330.52	371.26
330.594	370.23
330.668	370.46
330.742	356.34
330.816	341.88
330.89	364.38
330.964	340.04
331.038	356.34
331.113	351.98
331.187	375.51
331.261	352.67
331.335	364.72
331.409	364.84
331.483	365.3
331.557	355.54
331.63	354.39
331.704	360.47
331.778	407.2
331.852	343.83
331.926	352.44
332	367.82
332.074	376.2
332.148	369.08
332.222	351.98
332.295	359.78
332.369	358.75
332.443	375.63
332.517	342.34
332.591	380.56
332.665	369.31
332.738	351.86
332.812	363.92
332.886	366.56
332.959	379.07
333.033	353.59
333.107	385.39
333.181	360.13
333.254	367.13
333.328	368.39
333.402	367.02
333.475	363.34
333.549	368.39
333.622	352.9
333.696	390.21
333.77	371.95
333.843	372.3
333.917	358.87
333.99	457.02
334.064	364.72
334.137	354.16
334.211	361.28
334.284	365.52
334.358	386.65
334.431	365.98
334.505	358.98
334.578	366.9
334.652	361.74
334.725	403.98
334.799	366.67
334.872	349.11
334.945	394.11
335.019	362.43
335.092	375.4
335.165	377.35
335.239	345.78
335.312	361.28
335.385	359.78
335.459	393.54
335.532	367.59
335.605	371.72
335.678	424.19
335.752	385.27
335.825	348.42
335.898	351.29
335.971	423.84
336.045	365.52
336.118	353.82
336.191	364.03
336.264	392.62
336.337	358.29
336.41	359.44
336.483	376.66
336.557	342.22
336.63	354.27
336.703	443.59
336.776	382.4
336.849	410.76
336.922	363.46
336.995	351.29
337.068	341.53
337.141	383.43
337.214	357.14
337.287	363.23
337.36	370
337.433	365.98
337.506	360.01
337.579	361.97
337.652	369.43
337.725	385.61
337.797	355.88
337.87	362.88
337.943	388.26
338.016	357.6
338.089	371.72
338.162	335.79
338.235	356.57
338.307	360.7
338.38	378.04
338.453	372.76
338.526	364.49
338.598	377.69
338.671	343.71
338.744	360.13
338.817	369.89
338.889	365.98
338.962	363.23
339.035	345.32
339.107	354.62
339.18	365.41
339.253	346.35
339.325	360.93
339.398	361.16
339.47	366.67
339.543	400.19
339.616	380.68
339.688	388.26
339.761	391.7
339.833	396.52
339.906	365.18
339.978	336.02
340.051	350.37
340.123	341.88
340.196	369.66
340.268	339.12
340.341	358.06
340.413	357.14
340.485	377.35
340.558	378.61
340.63	373.91
340.703	371.26
340.775	358.64
340.847	359.1
340.92	373.56
340.992	365.52
341.064	369.2
341.137	358.75
341.209	352.55
341.281	364.26
341.354	366.1
341.426	359.67
341.498	378.38
341.57	368.97
341.643	359.67
341.715	386.42
341.787	366.67
341.859	362.2
341.931	346.7
342.003	370.12
342.076	373.79
342.148	385.73
342.22	358.75
342.292	372.87
342.364	373.45
342.436	370.12
342.508	365.18
342.58	347.73
342.652	365.64
342.724	427.06
342.796	361.16
342.868	363
342.94	351.17
343.012	378.5
343.084	366.67
343.156	362.08
343.228	361.74
343.3	364.95
343.372	370.23
343.444	346.12
343.516	363.34
343.588	370.46
343.66	367.59
343.731	348.88
343.803	355.65
343.875	353.47
343.947	361.39
344.019	363.92
344.09	349.22
344.162	353.93
344.234	377.23
344.306	353.82
344.377	388.71
344.449	359.33
344.521	387.34
344.593	363.92
344.664	350.03
344.736	355.19
344.808	375.74
344.879	357.72
344.951	344.86
345.023	367.94
345.094	356.69
345.166	361.05
345.237	378.15
345.309	356
345.38	382.06
345.452	373.56
345.524	355.19
345.595	364.72
345.667	354.04
345.738	359.33
345.81	356.69
345.881	367.25
345.953	374.02
346.024	365.41
346.095	355.77
346.167	354.62
346.238	360.24
346.31	366.79
346.381	355.42
346.452	354.5
346.524	359.21
346.595	356.46
346.666	370.58
346.738	356.11
346.809	360.01
346.88	399.62
346.952	354.5
347.023	363.11
347.094	368.97
347.165	405.25
347.237	384.24
347.308	357.37
347.379	341.3
347.45	369.66
347.521	381.25
347.593	345.89
347.664	377.12
347.735	357.49
347.806	350.37
347.877	377.58
347.948	350.37
348.019	356.91
348.09	360.82
348.161	370.12
348.233	358.29
348.304	399.96
348.375	382.06
348.446	393.54
348.517	355.77
348.588	353.36
348.659	368.51
348.73	362.88
348.801	345.21
348.871	361.39
348.942	364.61
349.013	362.08
349.084	356
349.155	366.33
349.226	361.39
349.297	374.02
349.368	348.3
349.439	360.82
349.509	375.05
349.58	364.15
349.651	360.36
349.722	384.24
349.793	375.28
349.863	354.96
349.934	376.2
350.005	366.44
350.076	367.82
350.146	364.03
350.217	361.74
350.288	346.12
350.358	360.47
350.429	372.07
350.5	352.9
350.57	398.82
350.641	357.95
350.711	355.88
350.782	382.17
350.853	367.13
350.923	355.42
350.994	368.05
351.064	354.04
351.135	357.14
351.205	353.01
351.276	367.71
351.346	350.6
351.417	381.37
351.487	361.51
351.558	363.69
351.628	367.02
351.699	363.34
351.769	401.11
351.84	383.2
351.91	362.31
351.98	365.18
352.051	366.44
352.121	378.27
352.191	356.11
352.262	373.91
352.332	369.2
352.402	369.08
352.473	378.5
352.543	379.07
352.613	386.3
352.683	357.95
352.754	362.77
352.824	364.38
352.894	366.67
352.964	364.61
353.035	360.13
353.105	368.39
353.175	356.8
353.245	367.94
353.315	376.2
353.385	394
353.455	386.88
353.526	370.12
353.596	358.98
353.666	365.52
353.736	376.78
353.806	360.93
353.876	354.04
353.946	373.56
354.016	368.62
354.086	359.9
354.156	356.91
354.226	360.01
354.296	364.72
354.366	383.2
354.436	363.8
354.506	381.02
354.576	372.87
354.645	375.63
354.715	398.24
354.785	392.27
354.855	360.82
354.925	374.13
354.995	359.1
355.065	374.71
355.134	385.04
355.204	350.26
355.274	365.41
355.344	362.77
355.414	388.83
355.483	350.03
355.553	364.15
355.623	383.66
355.693	367.82
355.762	371.49
355.832	357.83
355.902	402.03
355.971	385.27
356.041	392.96
356.111	378.96
356.18	374.94
356.25	365.18
356.319	348.53
356.389	376.55
356.459	356.69
356.528	356.34
356.598	356.8
356.667	345.32
356.737	361.62
356.806	376.32
356.876	355.31
356.945	372.76
357.015	367.94
357.084	350.03
357.154	376.78
357.223	371.26
357.292	382.4
357.362	363.46
357.431	356.46
357.501	394.57
357.57	351.4
357.639	360.47
357.709	370.69
357.778	371.15
357.847	364.84
357.917	367.25
357.986	377.12
358.055	355.08
358.124	366.56
358.194	417.41
358.263	1470.94
358.332	425.34
358.401	360.93
358.471	391.01
358.54	377.69
358.609	362.43
358.678	385.96
358.747	354.73
358.816	380.1
358.886	372.3
358.955	382.52
359.024	366.56
359.093	373.33
359.162	414.2
359.231	362.88
359.3	358.06
359.369	375.97
359.438	370.46
359.507	370.46
359.576	369.89
359.645	378.5
359.714	371.49
359.783	383.32
359.852	392.73
359.921	383.32
359.99	377.46
360.059	398.59
360.128	361.62
360.197	368.62
360.266	370.46
360.334	367.48
360.403	373.33
360.472	362.65
360.541	374.59
360.61	374.25
360.679	371.38
360.747	384.7
360.816	374.48
360.885	366.67
360.954	385.61
361.022	385.84
361.091	379.3
361.16	374.13
361.228	373.1
361.297	367.82
361.366	403.52
361.434	391.01
361.503	403.41
361.572	366.21
361.64	376.09
361.709	361.62
361.778	380.68
361.846	360.47
361.915	360.01
361.983	368.62
362.052	370.46
362.12	372.07
362.189	376.43
362.257	388.6
362.326	371.38
362.394	374.71
362.463	383.55
362.531	365.98
362.6	384.47
362.668	388.14
362.737	376.78
362.805	376.43
362.873	386.3
362.942	383.78
363.01	387.68
363.079	363.92
363.147	369.08
363.215	374.59
363.284	384.24
363.352	361.05
363.42	386.99
363.488	363.23
363.557	371.72
363.625	365.07
363.693	356.46
363.761	394.11
363.83	402.38
363.898	357.26
363.966	359.21
364.034	372.87
364.102	376.78
364.171	350.72
364.239	392.27
364.307	389.75
364.375	380.1
364.443	378.61
364.511	377.58
364.579	382.29
364.647	376.66
364.715	368.85
364.783	365.98
364.851	362.2
364.919	422.81
364.987	413.05
365.055	365.3
365.123	374.94
365.191	394
365.259	421.32
365.327	371.04
365.395	366.9
365.463	376.89
365.531	388.71
365.599	383.78
365.667	400.31
365.735	386.42
365.802	382.74
365.87	387.68
365.938	396.06
366.006	376.89
366.074	372.41
366.142	370.58
366.209	384.24
366.277	389.98
366.345	377.81
366.413	379.19
366.48	430.39
366.548	380.68
366.616	377
366.683	370.92
366.751	368.85
366.819	376.89
366.886	387.68
366.954	423.84
367.022	549.32
367.089	389.4
367.157	377.12
367.224	761.47
367.292	392.62
367.36	412.71
367.427	406.28
367.495	408.46
367.562	387.8
367.63	388.6
367.697	374.82
367.765	393.77
367.832	391.7
367.9	390.44
367.967	408.35
368.034	372.41
368.102	385.04
368.169	383.09
368.237	390.55
368.304	377.92
368.371	363.34
368.439	387.57
368.506	364.49
368.573	386.88
368.641	392.62
368.708	393.65
368.775	398.7
368.843	389.52
368.91	392.5
368.977	385.16
369.044	380.68
369.112	395.03
369.179	374.02
369.246	399.39
369.313	377.69
369.38	381.02
369.448	394
369.515	389.75
369.582	371.72
369.649	398.47
369.716	401
369.783	404.44
369.85	397.78
369.917	380.1
369.984	397.9
370.052	387.8
370.119	377.81
370.186	447.61
370.253	401.11
370.32	404.1
370.387	393.88
370.454	406.05
370.521	408.23
370.587	403.52
370.654	415.35
370.721	411.44
370.788	392.39
370.855	396.98
370.922	422.01
370.989	407.08
371.056	400.65
371.123	412.82
371.189	396.18
371.256	394.45
371.323	392.96
371.39	404.67
371.457	399.28
371.523	440.83
371.59	406.28
371.657	398.13
371.724	395.26
371.79	398.59
371.857	395.03
371.924	443.36
371.991	416.61
372.057	389.52
372.124	444.97
372.191	440.03
372.257	426.6
372.324	416.15
372.39	401.69
372.457	417.07
372.524	406.97
372.59	417.99
372.657	418.56
372.723	406.74
372.79	405.7
372.856	432.91
372.923	451.74
372.989	420.17
373.056	407.66
373.122	427.17
373.189	409.38
373.255	410.99
373.322	421.32
373.388	428.89
373.454	435.55
373.521	455.18
373.587	446.46
373.654	434.06
373.72	440.15
373.786	428.89
373.853	443.47
373.919	453.92
373.985	448.53
374.052	414.31
374.118	425.91
374.184	448.3
374.25	471.83
374.317	426.14
374.383	434.75
374.449	447.38
374.515	450.82
374.581	452.66
374.648	449.44
374.714	462.42
374.78	448.41
374.846	485.03
374.912	444.16
374.978	458.51
375.044	470.91
375.11	456.91
375.177	455.3
375.243	462.88
375.309	476.31
375.375	486.18
375.441	455.07
375.507	509.37
375.573	498.58
375.639	471.03
375.705	506.27
375.771	488.71
375.837	472.86
375.903	484.92
375.968	502.83
376.034	506.84
376.1	526.36
376.166	545.3
376.232	522.57
376.298	492.38
376.364	532.22
376.43	525.21
376.495	504.2
376.561	514.54
376.627	511.9
376.693	549.55
376.759	537.27
376.824	557.93
376.89	537.84
376.956	545.19
377.022	564.47
377.087	549.44
377.153	579.05
377.219	559.19
377.284	554.6
377.35	561.26
377.416	562.98
377.481	583.76
377.547	580.89
377.613	616.59
377.678	605.92
377.744	587.2
377.809	608.1
377.875	625.89
377.94	628.65
378.006	606.72
378.071	623.02
378.137	636.45
378.202	643.46
378.268	622.68
378.333	630.6
378.399	647.02
378.464	663.09
378.53	667.45
378.595	676.86
378.661	695.35
378.726	672.73
378.791	711.07
378.857	702.81
378.922	717.62
378.987	715.9
379.053	730.82
379.118	757.22
379.183	773.07
379.249	778.69
379.314	779.61
379.379	756.99
379.444	774.1
379.51	807.97
379.575	772.72
379.64	785.35
379.705	785.92
379.771	801.08
379.836	794.65
379.901	817.26
379.966	821.97
380.031	807.16
380.096	823.81
380.161	862.5
380.227	903.59
380.292	887.64
380.357	871.11
380.422	907.04
380.487	929.31
380.552	969.83
380.617	965.36
380.682	966.16
380.747	960.19
380.812	995.43
380.877	1000.95
380.942	1030.91
381.007	1060.3
381.072	1036.99
381.137	1041.36
381.202	1049.97
381.266	1056.62
381.331	1049.74
381.396	1075.11
381.461	1065.81
381.526	1137.44
381.591	1219.41
381.656	1204.6
381.72	1211.72
381.785	1194.61
381.85	1288.86
381.915	1288.29
381.979	1319.17
382.044	1343.51
382.109	1378.06
382.174	1411.47
382.238	1450.27
382.303	1412.05
382.368	1418.59
382.432	1479.78
382.497	1505.15
382.562	1508.02
382.626	1519.38
382.691	1533.73
382.756	1589.07
382.82	1630.86
382.885	1612.83
382.949	1663.11
383.014	1667.59
383.078	1726.6
383.143	1737.85
383.208	1786.18
383.272	1795.14
383.337	1748.87
383.401	1774.13
383.465	1903.51
383.53	2029.56
383.594	2024.51
383.659	2066.29
383.723	2065.38
383.788	2072.03
383.852	2116.92
383.916	2188.1
383.981	2134.6
384.045	2149.98
384.109	2328.61
384.174	2464.88
384.238	2501.5
384.302	2412.19
384.367	2360.07
384.431	2329.42
384.495	2406.45
384.56	2526.07
384.624	2700.8
384.688	2711.59
384.752	2680.25
384.816	2692.76
384.881	2774.61
384.945	2841.54
385.009	2801.36
385.073	3018.45
385.137	3038.42
385.201	3123.38
385.265	3101.45
385.33	3110.17
385.394	3171.48
385.458	3251.95
385.522	3440.91
385.586	3381.79
385.65	3353.67
385.714	3206.72
385.778	3169.41
385.842	3383.86
385.906	3426.91
385.97	3514.39
386.034	3666.04
386.098	3713.68
386.162	3658.69
386.226	3727.92
386.29	4003.78
386.354	4215.24
386.417	4167.6
386.481	4180.23
386.545	4156.01
386.609	4158.53
386.673	4170.24
386.737	4141.31
386.8	4379.87
386.864	4540.82
386.928	4859.04
386.992	4861
387.056	4864.67
387.119	4962.02
387.183	5049.5
387.247	5284.95
387.31	5228.59
387.374	5214.24
387.438	5286.68
387.502	5316.3
387.565	5324.91
387.629	5308.14
387.692	5389.88
387.756	5554.16
387.82	6201.87
387.883	6573.7
387.947	6721.68
388.01	6818.69
388.074	6612.28
388.138	6678.75
388.201	7251.83
388.265	7446.53
388.328	7415.31
388.392	7131.18
388.455	7135.77
388.519	7395.45
388.582	7258.03
388.645	7346.08
388.709	7785.19
388.772	8025.24
388.836	8389.85
388.899	8084.13
388.962	8041.2
389.026	8407.07
389.089	9471.27
389.153	9375.98
389.216	9508.01
389.279	9647.72
389.343	9311.81
389.406	9609.72
389.469	9357.27
389.532	9272.09
389.596	10139.87
389.659	10815.12
389.722	10601.02
389.785	10701.01
389.848	10939.34
389.912	10881.48
389.975	10518.25
390.038	10668.52
390.101	10726.73
390.164	10474.4
390.227	10639.36
390.291	11103.16
390.354	11848.56
390.417	12173.1
390.48	12170.69
390.543	13065.44
390.606	12769.37
390.669	12693.49
390.732	12994.04
390.795	13358.3
390.858	13702.7
390.921	13387.23
390.984	13190.69
391.047	13852.51
391.11	14604.57
391.173	14375.89
391.236	14784.35
391.299	15339.64
391.362	15426.31
391.424	15794.48
391.487	15281.44
391.55	14696.64
391.613	14211.5
391.676	14315.39
391.739	15233.91
391.802	15432.28
391.864	16233.02
391.927	17276.44
391.99	17627.73
392.053	18262.34
392.115	17834.83
392.178	17434.63
392.241	17694.89
392.304	17895.33
392.366	19415.4
392.429	20419.33
392.492	20946.84
392.554	20099.61
392.617	19339.52
392.68	19581.52
392.742	20134.05
392.805	21159.11
392.867	22966.29
392.93	23196.7
392.992	23138.95
393.055	22232.49
393.118	21954.79
393.18	22776.3
393.243	23082.82
393.305	21754.35
393.368	22436.03
393.43	24115.68
393.493	24898.04
393.555	24911.59
393.618	24659.14
393.68	24646.97
393.742	24093.52
393.805	26491.24
393.867	27081.43
393.93	28037.61
393.992	29089.87
394.054	29217.64
394.117	28863.02
394.179	29673.51
394.241	29723.79
394.304	28114.52
394.366	27607.1
394.428	29308.91
394.49	30483.77
394.553	30601.44
394.615	31774.71
394.677	31286.92
394.739	31285.08
394.802	32680.71
394.864	32421.15
394.926	33042.22
394.988	32137.36
395.05	31164.2
395.112	31497.46
395.174	31615.36
395.237	30726.23
395.299	31493.56
395.361	33337.03
395.423	34076.34
395.485	34613.38
395.547	32764.63
395.609	35404.24
395.671	36772.09
395.733	36528.71
395.795	37682.22
395.857	36926.84
395.919	37736.52
395.981	38631.28
396.043	39895.12
396.105	39958.37
396.167	39886.39
396.229	40166.05
396.291	40208.06
396.352	41752.01
396.414	39615.12
396.476	37610.13
396.538	38868.92
396.6	40428.14
396.662	44988.81
396.724	46619.1
396.785	47950.44
396.847	45662.23
396.909	41013.73
396.971	40957.6
397.032	42819.31
397.094	43479.65
397.156	41712.29
397.218	42374.58
397.279	44103.82
397.341	43426.49
397.403	44798.48
397.464	44418.94
397.526	43476.32
397.588	44730.28
397.649	43552.32
397.711	47866.98
397.772	48833.6
397.834	44296.11
397.896	43534.29
397.957	43001.62
398.019	44477.26
398.08	43416.28
398.142	42764.33
398.203	44687.12
398.265	48472.89
398.326	50166.66
398.388	50659.96
398.449	50347.93
398.511	50440.23
398.572	49992.74
398.633	51407.42
398.695	50559.39
398.756	48732.46
398.818	47311.8
398.879	47688.69
398.94	48502.63
399.002	50271.82
399.063	50809.43
399.124	50272.51
399.186	49844.53
399.247	49981.14
399.308	50156.1
399.369	49822.37
399.431	48008.07
399.492	47406.86
399.553	48146.75
399.614	49661.08
399.676	49775.08
399.737	50414.28
399.798	50095.48
399.859	50431.39
399.92	49289.01
399.981	48483.23
400.042	48924.63
400.104	51127.88
400.165	54179.97
400.226	54401.99
400.287	52452.45
400.348	50316.7
400.409	50341.04
400.47	53494.04
400.531	53820.41
400.592	52285.65
400.653	50428.52
400.714	52131.13
400.775	51728.18
400.836	51215.36
400.897	50495.33
400.958	51520.85
401.019	51071.98
401.08	49995.95
401.141	51701.43
401.201	51287.11
401.262	51816
401.323	49687.37
401.384	48336.28
401.445	48240.65
401.506	50539.07
401.567	51009.18
401.627	52352.81
401.688	52188.64
401.749	52034.35
401.81	50939.27
401.87	52513.99
401.931	51904.97
401.992	50858.68
402.053	48882.27
402.113	46582.7
402.174	45518.27
402.235	46150.71
402.295	46863.05
402.356	47506.27
402.417	49392.56
402.477	48938.75
402.538	49844.87
402.598	50295.81
402.659	47138.34
402.719	44955.29
402.78	47831.5
402.841	49644.55
402.901	48681.83
402.962	48827.05
403.022	48701.12
403.083	49754.41
403.143	50220.39
403.204	50074.02
403.264	48357.4
403.324	48676.44
403.385	49391.3
403.445	48963.32
403.506	47616.94
403.566	47609.94
403.627	46865.8
403.687	47633.7
403.747	49969.2
403.808	50379.73
403.868	48729.36
403.928	46900.7
403.989	45579.23
404.049	43957.22
404.109	45168.59
404.169	45159.98
404.23	44055.6
404.29	43859.18
404.35	47540.37
404.41	47855.04
404.47	44922.34
404.531	43858.37
404.591	44619.5
404.651	46121.55
404.711	45624.92
404.771	40609.41
404.831	38838.61
404.892	38363.56
404.952	38881.08
405.012	38633
405.072	37922.73
405.132	38959.15
405.192	38568.71
405.252	39641.06
405.312	39376.45
405.372	40345.71
405.432	37317.62
405.492	37772.46
405.552	39043.18
405.612	38162.55
405.672	36395.65
405.732	37246.9
405.792	36560.97
405.852	35910.97
405.912	33536.32
405.971	31867.12
406.031	32042.08
406.091	32822.83
406.151	32663.15
406.211	32128.41
406.271	32032.78
406.33	31518.01
406.39	29062.54
406.45	28122.1
406.51	29417.97
406.57	29371.36
406.629	29736.08
406.689	30703.85
406.749	32251.59
406.808	32064.35
406.868	31782.17
406.928	32146.77
406.988	30769.51
407.047	30910.26
407.107	31557.27
407.166	30565.97
407.226	29402.12
407.286	28596.11
407.345	28661.09
407.405	28546.98
407.464	28013.96
407.524	26283.91
407.584	25946.17
407.643	27062.61
407.703	27145.38
407.762	28755.22
407.822	28468.91
407.881	26522.24
407.941	25592.01
408	24119.58
408.059	23278.78
408.119	23789.41
408.178	23973.78
408.238	23907.2
408.297	24072.28
408.356	23882.4
408.416	24050.47
408.475	24415.99
408.535	23534.56
408.594	22249.82
408.653	23095.56
408.712	24658.22
408.772	24184.1
408.831	22844.15
408.89	22628.78
408.95	21907.37
409.009	21001.94
409.068	20860.62
409.127	20988.17
409.186	20954.65
409.246	19270.98
409.305	19774.73
409.364	19052.06
409.423	18688.03
409.482	18791.58
409.541	17878.68
409.6	18494.24
409.66	20128.54
409.719	20493.84
409.778	18786.52
409.837	18056.39
409.896	18190.82
409.955	17890.16
410.014	18052.03
410.073	17796.37
410.132	17956.06
410.191	17357.72
410.25	17154.75
410.309	17008.84
410.368	16517.38
410.427	16218.78
410.486	16478.58
410.545	16937.89
410.603	17172.2
410.662	17165.66
410.721	16649.4
410.78	16203.05
410.839	15504.49
410.898	15062.4
410.957	15747.3
411.015	15273.4
411.074	14460.15
411.133	14968.49
411.192	16114.77
411.25	16543.55
411.309	15381.08
411.368	14673.45
411.427	14410.33
411.485	14522.83
411.544	14511.93
411.603	13989.36
411.661	13329.83
411.72	13855.5
411.779	14378.53
411.837	13837.59
411.896	14073.85
411.955	14386.11
412.013	14222.4
412.072	13690.76
412.13	13046.5
412.189	13978.22
412.247	14583.45
412.306	13752.87
412.364	12784.76
412.423	11813.08
412.481	11386.37
412.54	11363.75
412.598	11045.53
412.657	10287.96
412.715	10019.21
412.774	10579.44
412.832	10671.85
412.891	11075.03
412.949	11129.56
413.007	11575.91
413.066	11953.6
413.124	11598.06
413.182	11071.7
413.241	10737.86
413.299	10438.23
413.357	10410.57
413.416	10668.87
413.474	11252.97
413.532	11504.04
413.59	11427.01
413.649	10268.79
413.707	9794.2
413.765	9994.87
413.823	10105.08
413.881	9513.63
413.94	8879.01
413.998	8968.79
414.056	8809.44
414.114	8817.71
414.172	9282.31
414.23	9408.47
414.288	9363.13
414.347	9446.7
414.405	9326.62
414.463	9521.21
414.521	9338.67
414.579	8856.17
414.637	8606.13
414.695	8849.05
414.753	9573.9
414.811	9491.93
414.869	9025.5
414.927	8650.68
414.985	8741.02
415.043	8395.82
415.101	8312.82
415.158	8099.06
415.216	7839.84
415.274	7849.48
415.332	8175.98
415.39	8487.08
415.448	8360.23
415.506	7919.05
415.563	7577.98
415.621	7360.89
415.679	7526.78
415.737	7894.83
415.795	7653.06
415.852	7628.38
415.91	7289.6
415.968	7544.46
416.026	7470.18
416.083	7073.43
416.141	7157.58
416.199	7345.74
416.256	7043.47
416.314	7018.21
416.372	6909.84
416.429	7068.84
416.487	6878.16
416.544	6789.41
416.602	6797.22
416.66	6500.12
416.717	6307.83
416.775	6579.33
416.832	6573.48
416.89	6695.85
416.947	6397.83
417.005	6478.31
417.062	6286.01
417.12	5986.62
417.177	5867.8
417.235	6373.61
417.292	6407.13
417.35	5990.75
417.407	5779.4
417.464	5981.91
417.522	5791.45
417.579	5929.79
417.637	6036.21
417.694	5792.37
417.751	5732.79
417.809	5287.71
417.866	5280.25
417.923	5473.92
417.981	5363.48
418.038	5171.88
418.095	5036.3
418.152	4916.33
418.21	4884.07
418.267	4754.12
418.324	4559.3
418.381	4748.26
418.438	4654.13
418.496	4688.22
418.553	4723.35
418.61	4919.89
418.667	5017.58
418.724	5030.9
418.781	4772.83
418.838	4540.24
418.895	4475.61
418.952	4723.47
419.01	4542.54
419.067	4515.45
419.124	4513.73
419.181	4488.7
419.238	4599.71
419.295	4663.31
419.352	4599.25
419.409	4429.23
419.466	4389.05
419.523	4360.93
419.579	4421.08
419.636	4229.71
419.693	4214.56
419.75	4007.23
419.807	4013.65
419.864	4226.72
419.921	4038.68
419.978	3965.44
420.034	4068.99
420.091	3862
420.148	3712.65
420.205	3565.82
420.262	3617.71
420.318	3614.84
420.375	3723.21
420.432	3908.96
420.489	3650.54
420.545	3653.64
420.602	3654.56
420.659	3454.35
420.715	3467.43
420.772	3519.44
420.829	3479.37
420.885	3476.27
420.942	3592.11
420.999	3566.16
421.055	3491.2
421.112	3402.57
421.168	3400.96
421.225	3255.86
421.282	3142.2
421.338	3049.1
421.395	3021.66
421.451	3061.27
421.508	3006.05
421.564	3087.79
421.621	3077.57
421.677	3215.56
421.734	3259.64
421.79	3292.82
421.846	3203.97
421.903	3019.02
421.959	2733.28
422.016	2774.04
422.072	2954.85
422.128	2930.17
422.185	2830.52
422.241	2843.03
422.297	2849.69
422.354	2858.53
422.41	2730.64
422.466	2640.3
422.523	2773.92
422.579	2698.73
422.635	2784.49
422.691	2749.93
422.748	2652.58
422.804	2655.91
422.86	2594.61
422.916	2543.75
422.972	2605.28
423.029	2523.54
423.085	2507.47
423.141	2570.96
423.197	2527.56
423.253	2499.67
423.309	2577.96
423.365	2586
423.421	2643.05
423.477	2577.62
423.533	2650.05
423.589	2549.14
423.645	2552.93
423.701	2395.77
423.757	2241.82
423.813	2248.37
423.869	2266.51
423.925	2251.7
423.981	2329.65
424.037	2461.21
424.093	2380.04
424.149	2395.54
424.205	2434.23
424.261	2549.03
424.317	2480.72
424.373	2414.94
424.428	2383.95
424.484	2354.67
424.54	2360.07
424.596	2351.11
424.652	2318.97
424.708	2249.4
424.763	2128.29
424.819	2148.72
424.875	2129.09
424.931	2204.17
424.986	2332.75
425.042	2251.01
425.098	2105.56
425.153	2172.6
425.209	2071.34
425.265	2108.77
425.32	2070.43
425.376	2068.36
425.432	1913.95
425.487	2004.76
425.543	2032.08
425.598	2039.2
425.654	2044.02
425.709	2162.27
425.765	2034.61
425.82	1990.53
425.876	2014.06
425.932	1893.17
425.987	1911.2
426.042	1903.39
426.098	1893.86
426.153	1890.08
426.209	1867.57
426.264	1928.3
426.32	1873.31
426.375	1920.38
426.43	1990.41
426.486	2008.43
426.541	1994.89
426.597	1864.47
426.652	1733.03
426.707	1763.45
426.763	1755.41
426.818	1793.41
426.873	1689.06
426.928	1677.58
426.984	1695.72
427.039	1716.15
427.094	1873.77
427.149	1802.48
427.205	1705.25
427.26	1643.6
427.315	1601.58
427.37	1514.79
427.425	1634.18
427.48	1651.4
427.536	1610.54
427.591	1615.59
427.646	1660.93
427.701	1651.52
427.756	1586.77
427.811	1598.02
427.866	1536.03
427.921	1450.73
427.976	1478.74
428.031	1542.11
428.086	1569.9
428.141	1522.14
428.196	1522.48
428.251	1477.37
428.306	1464.62
428.361	1471.17
428.416	1470.36
428.471	1549.81
428.526	1523.06
428.581	1450.16
428.636	1423.87
428.691	1350.4
428.745	1345.35
428.8	1352.01
428.855	1491.03
428.91	1472.66
428.965	1400.34
429.02	1364.17
429.074	1379.1
429.129	1399.42
429.184	1410.67
429.239	1309.64
429.293	1290.47
429.348	1356.83
429.403	1383.35
429.457	1351.09
429.512	1279.8
429.567	1192.09
429.621	1151.91
429.676	1202.31
429.731	1170.85
429.785	1165.57
429.84	1184.51
429.895	1191.97
429.949	1275.2
430.004	1180.49
430.058	1136.75
430.113	1179
430.167	1157.65
430.222	1141.81
430.276	1150.99
430.331	1169.24
430.385	1146.4
430.44	1120.22
430.494	1115.86
430.549	1108.05
430.603	1137.79
430.657	1123.09
430.712	1128.49
430.766	1178.89
430.821	1243.06
430.875	1237.32
430.929	1250.87
430.984	1222.63
431.038	1170.51
431.092	1089.8
431.147	1083.03
431.201	1089.69
431.255	1107.37
431.309	1060.87
431.364	1043.54
431.418	1022.53
431.472	997.27
431.526	987.74
431.581	1006.46
431.635	982.12
431.689	1005.42
431.743	991.07
431.797	969.6
431.851	959.5
431.906	960.99
431.96	972.47
432.014	956.29
432.068	956.17
432.122	984.76
432.176	1017.71
432.23	1015.41
432.284	1011.85
432.338	1000.72
432.392	954.11
432.446	898.43
432.5	890.39
432.554	886.37
432.608	918.4
432.662	903.36
432.716	891.88
432.77	850.33
432.824	843.67
432.878	873.52
432.931	888.67
432.985	884.88
433.039	853.08
433.093	838.62
433.147	851.36
433.201	839.77
433.254	837.01
433.308	815.08
433.362	804.52
433.416	843.21
433.47	800.27
433.523	818.41
433.577	827.37
433.631	838.39
433.684	837.81
433.738	843.44
433.792	825.3
433.846	812.1
433.899	792.93
433.953	805.44
434.006	834.03
434.06	797.98
434.114	784.2
434.167	784.2
434.221	784.2
