Data from QEPB00791_17-14-05-351.txt Node
Date: Mon Jan 20 17:14:05 MST 2020
User: ecestudent
Spectrometer: QEPB0079
Trigger mode: 0
Integration Time (sec): 8.000000E-3
Scans to average: 1
Electric dark correction enabled: true
Nonlinearity correction enabled: false
Boxcar width: 0
XAxis mode: Wavelengths
Number of Pixels in Spectrum: 1044
>>>>>Begin Spectral Data<<<<<
198.864	29.38
199.671	30.38
200.477	30.38
201.284	29.38
202.091	30.38
202.897	29.38
203.704	33.38
204.51	30.38
205.317	30.38
206.123	30.38
206.929	30.38
207.736	31.38
208.542	29.38
209.348	32.38
210.154	31.38
210.96	30.38
211.765	32.38
212.571	32.38
213.377	32.38
214.182	28.38
214.988	30.38
215.793	29.38
216.599	31.38
217.404	32.38
218.209	31.38
219.015	33.38
219.82	29.38
220.625	33.38
221.43	31.38
222.235	32.38
223.039	35.38
223.844	31.38
224.649	36.38
225.453	33.38
226.258	34.38
227.062	34.38
227.867	31.38
228.671	39.38
229.475	32.38
230.28	34.38
231.084	35.38
231.888	36.38
232.692	38.38
233.496	35.38
234.299	33.38
235.103	34.38
235.907	35.38
236.71	36.38
237.514	33.38
238.317	36.38
239.121	37.38
239.924	37.38
240.727	35.38
241.531	41.38
242.334	34.38
243.137	40.38
243.94	38.38
244.743	34.38
245.545	42.38
246.348	40.38
247.151	40.38
247.954	39.38
248.756	38.38
249.559	41.38
250.361	42.38
251.163	41.38
251.965	42.38
252.768	46.38
253.57	43.38
254.372	41.38
255.174	46.38
255.976	41.38
256.777	47.38
257.579	46.38
258.381	42.38
259.183	48.38
259.984	44.38
260.786	47.38
261.587	45.38
262.388	47.38
263.189	48.38
263.991	49.38
264.792	49.38
265.593	47.38
266.394	51.38
267.195	47.38
267.995	50.38
268.796	47.38
269.597	48.38
270.397	54.38
271.198	54.38
271.998	51.38
272.799	53.38
273.599	56.38
274.399	50.38
275.2	53.38
276	54.38
276.8	56.38
277.6	59.38
278.4	56.38
279.199	60.38
279.999	58.38
280.799	56.38
281.598	63.38
282.398	60.38
283.197	63.38
283.997	61.38
284.796	61.38
285.595	67.38
286.395	65.38
287.194	67.38
287.993	64.38
288.792	71.38
289.59	72.38
290.389	70.38
291.188	77.38
291.987	70.38
292.785	76.38
293.584	78.38
294.382	79.38
295.181	77.38
295.979	82.38
296.777	79.38
297.575	87.38
298.373	89.38
299.171	90.38
299.969	94.38
300.767	95.38
301.565	93.38
302.363	97.38
303.16	102.38
303.958	103.38
304.756	114.38
305.553	114.38
306.35	120.38
307.148	114.38
307.945	124.38
308.742	131.38
309.539	134.38
310.336	140.38
311.133	142.38
311.93	149.38
312.727	159.38
313.524	164.38
314.32	178.38
315.117	188.38
315.913	197.38
316.71	213.38
317.506	221.38
318.302	227.38
319.099	241.38
319.895	250.38
320.691	271.38
321.487	272.38
322.283	290.38
323.079	308.38
323.874	320.38
324.67	342.38
325.466	351.38
326.261	374.38
327.057	399.38
327.852	426.38
328.648	472.38
329.443	500.38
330.238	554.38
331.033	624.38
331.828	704.38
332.623	801.38
333.418	896.38
334.213	980.38
335.008	1032.38
335.803	1067.38
336.597	1093.38
337.392	1130.38
338.186	1180.38
338.981	1246.38
339.775	1341.38
340.57	1406.38
341.364	1492.38
342.158	1593.38
342.952	1694.38
343.746	1782.38
344.54	1886.38
345.334	1943.38
346.127	2014.38
346.921	2053.38
347.715	2098.38
348.508	2112.38
349.302	2141.38
350.095	2166.38
350.889	2201.38
351.682	2269.38
352.475	2333.38
353.268	2426.38
354.061	2472.38
354.854	2549.38
355.647	2650.38
356.44	2728.38
357.233	2871.38
358.025	3051.38
358.818	3292.38
359.611	3658.38
360.403	4285.38
361.195	5267.38
361.988	6409.38
362.78	7370.38
363.572	7908.38
364.364	8267.38
365.156	8630.38
365.948	9010.38
366.74	9298.38
367.532	9256.38
368.324	8923.38
369.116	8431.38
369.907	7990.38
370.699	7527.38
371.49	7165.38
372.282	6853.38
373.073	6599.38
373.864	6402.38
374.655	6218.38
375.446	6087.38
376.237	5976.38
377.028	5910.38
377.819	5887.38
378.61	5859.38
379.401	5894.38
380.192	5887.38
380.982	5927.38
381.773	6002.38
382.563	6087.38
383.354	6178.38
384.144	6322.38
384.934	6419.38
385.724	6550.38
386.514	6610.38
387.304	6660.38
388.094	6694.38
388.884	6744.38
389.674	6832.38
390.464	6889.38
391.253	6996.38
392.043	7108.38
392.832	7252.38
393.622	7396.38
394.411	7555.38
395.201	7720.38
395.99	7857.38
396.779	8022.38
397.568	8246.38
398.357	8525.38
399.146	8891.38
399.935	9352.38
400.724	10254.38
401.512	12000.38
402.301	15159.38
403.09	19365.38
403.878	23430.38
404.667	25906.38
405.455	26321.38
406.243	24939.38
407.031	22865.38
407.82	20831.38
408.608	19102.38
409.396	17961.38
410.184	17383.38
410.971	16999.38
411.759	16697.38
412.547	16308.38
413.334	15738.38
414.122	15283.38
414.91	14988.38
415.697	14796.38
416.484	14809.38
417.272	14887.38
418.059	15106.38
418.846	15383.38
419.633	15749.38
420.42	16188.38
421.207	16649.38
421.994	17149.38
422.78	17646.38
423.567	18175.38
424.354	18643.38
425.14	19156.38
425.927	19805.38
426.713	20549.38
427.499	21525.38
428.286	22911.38
429.072	24175.38
429.858	25354.38
430.644	25939.38
431.43	26579.38
432.216	27774.38
433.002	30585.38
433.787	34462.38
434.573	38882.38
435.359	43776.38
436.144	47851.38
436.93	50184.38
437.715	49761.38
438.5	46903.38
439.286	42694.38
440.071	38505.38
440.856	34842.38
441.641	31908.38
442.426	29519.38
443.211	27831.38
443.996	26445.38
444.78	25454.38
445.565	24732.38
446.35	23958.38
447.134	23123.38
447.919	22333.38
448.703	21518.38
449.487	20643.38
450.271	19871.38
451.056	19119.38
451.84	18532.38
452.624	18044.38
453.408	17677.38
454.191	17614.38
454.975	17512.38
455.759	17474.38
456.543	17273.38
457.326	17012.38
458.11	16557.38
458.893	16045.38
459.676	15504.38
460.46	15036.38
461.243	14698.38
462.026	14499.38
462.809	14394.38
463.592	14321.38
464.375	14342.38
465.158	14374.38
465.941	14571.38
466.723	14722.38
467.506	14886.38
468.288	15165.38
469.071	15384.38
469.853	15651.38
470.636	15896.38
471.418	16204.38
472.2	16361.38
472.982	16387.38
473.764	16320.38
474.546	16005.38
475.328	15696.38
476.11	15463.38
476.892	15247.38
477.673	15067.38
478.455	15064.38
479.236	15142.38
480.018	15277.38
480.799	15581.38
481.581	15937.38
482.362	16364.38
483.143	17004.38
483.924	17560.38
484.705	17952.38
485.486	18132.38
486.267	18049.38
487.048	17776.38
487.828	17517.38
488.609	17117.38
489.39	16698.38
490.17	16125.38
490.951	15413.38
491.731	14608.38
492.511	13865.38
493.292	13375.38
494.072	13064.38
494.852	12766.38
495.632	12542.38
496.412	12268.38
497.192	12016.38
497.971	11796.38
498.751	11669.38
499.531	11523.38
500.31	11408.38
501.09	11275.38
501.869	11202.38
502.648	11086.38
503.428	10995.38
504.207	10984.38
504.986	10938.38
505.765	10891.38
506.544	10940.38
507.323	10931.38
508.102	10912.38
508.881	10981.38
509.659	10959.38
510.438	11039.38
511.216	11049.38
511.995	11046.38
512.773	11129.38
513.552	11128.38
514.33	11171.38
515.108	11182.38
515.886	11266.38
516.664	11195.38
517.442	11250.38
518.22	11252.38
518.998	11273.38
519.775	11290.38
520.553	11286.38
521.331	11360.38
522.108	11417.38
522.886	11440.38
523.663	11507.38
524.44	11641.38
525.218	11719.38
525.995	11863.38
526.772	12042.38
527.549	12262.38
528.326	12653.38
529.103	13149.38
529.879	13794.38
530.656	14666.38
531.433	15539.38
532.209	16381.38
532.986	17107.38
533.762	17734.38
534.539	18497.38
535.315	19538.38
536.091	20892.38
536.867	22361.38
537.643	23676.38
538.419	24924.38
539.195	26001.38
539.971	26911.38
540.747	27914.38
541.522	29753.38
542.298	33622.38
543.074	43155.38
543.849	58149.38
544.624	63139.38
545.4	63139.38
546.175	63139.38
546.95	63139.38
547.725	63139.38
548.5	63139.38
549.275	63139.38
550.05	63139.38
550.825	63139.38
551.6	63139.38
552.374	63139.38
553.149	56571.38
553.923	51317.38
554.698	46911.38
555.472	43308.38
556.247	40194.38
557.021	37546.38
557.795	35501.38
558.569	33936.38
559.343	32654.38
560.117	31667.38
560.891	30815.38
561.665	29756.38
562.438	28676.38
563.212	27461.38
563.985	26402.38
564.759	25543.38
565.532	25000.38
566.306	24937.38
567.079	25361.38
567.852	26710.38
568.625	28708.38
569.398	31628.38
570.171	35865.38
570.944	41051.38
571.717	47270.38
572.49	53522.38
573.262	59646.38
574.035	63139.38
574.808	63139.38
575.58	63139.38
576.352	63139.38
577.125	63139.38
577.897	63139.38
578.669	63139.38
579.441	59602.38
580.213	55791.38
580.985	52093.38
581.757	48733.38
582.529	45294.38
583.301	42306.38
584.072	39590.38
584.844	37064.38
585.615	34858.38
586.387	32933.38
587.158	31306.38
587.929	29726.38
588.701	28441.38
589.472	27137.38
590.243	26078.38
591.014	25163.38
591.785	24443.38
592.556	23832.38
593.326	23324.38
594.097	22766.38
594.868	21930.38
595.638	21125.38
596.409	20309.38
597.179	19608.38
597.949	18910.38
598.72	18314.38
599.49	17923.38
600.26	17442.38
601.03	17077.38
601.8	16718.38
602.57	16354.38
603.34	16077.38
604.109	15793.38
604.879	15571.38
605.649	15271.38
606.418	15133.38
607.188	14875.38
607.957	14715.38
608.726	14541.38
609.496	14413.38
610.265	14229.38
611.034	14064.38
611.803	13862.38
612.572	13696.38
613.341	13503.38
614.109	13429.38
614.878	13278.38
615.647	13195.38
616.415	13069.38
617.184	12953.38
617.952	12827.38
618.721	12775.38
619.489	12719.38
620.257	12621.38
621.025	12532.38
621.793	12504.38
622.561	12451.38
623.329	12470.38
624.097	12436.38
624.865	12351.38
625.632	12268.38
626.4	12261.38
627.168	12194.38
627.935	12197.38
628.702	12172.38
629.47	12114.38
630.237	12086.38
631.004	12013.38
631.771	11998.38
632.538	11890.38
633.305	11869.38
634.072	11813.38
634.839	11828.38
635.606	11753.38
636.372	11743.38
637.139	11717.38
637.905	11657.38
638.672	11615.38
639.438	11597.38
640.204	11540.38
640.971	11479.38
641.737	11431.38
642.503	11438.38
643.269	11375.38
644.035	11363.38
644.8	11354.38
645.566	11294.38
646.332	11215.38
647.097	11208.38
647.863	11161.38
648.629	11164.38
649.394	11138.38
650.159	11125.38
650.924	11094.38
651.69	11071.38
652.455	11020.38
653.22	11016.38
653.985	11004.38
654.75	10994.38
655.514	10916.38
656.279	10937.38
657.044	10904.38
657.808	10911.38
658.573	10863.38
659.337	10878.38
660.102	10825.38
660.866	10844.38
661.63	10825.38
662.394	10811.38
663.158	10802.38
663.922	10806.38
664.686	10810.38
665.45	10778.38
666.214	10747.38
666.978	10735.38
667.741	10738.38
668.505	10704.38
669.268	10746.38
670.032	10735.38
670.795	10725.38
671.558	10689.38
672.321	10607.38
673.084	10593.38
673.847	10568.38
674.61	10559.38
675.373	10536.38
676.136	10467.38
676.899	10482.38
677.662	10465.38
678.424	10470.38
679.187	10438.38
679.949	10410.38
680.711	10438.38
681.474	10399.38
682.236	10400.38
682.998	10418.38
683.76	10447.38
684.522	10420.38
685.284	10387.38
686.046	10403.38
686.808	10408.38
687.569	10413.38
688.331	10379.38
689.092	10404.38
689.854	10460.38
690.615	10541.38
691.377	10532.38
692.138	10653.38
692.899	10722.38
693.66	10694.38
694.421	10694.38
695.182	10684.38
695.943	10638.38
696.704	10559.38
697.465	10488.38
698.225	10403.38
698.986	10346.38
699.746	10297.38
700.507	10223.38
701.267	10190.38
702.027	10142.38
702.788	10129.38
703.548	10080.38
704.308	10045.38
705.068	9969.38
705.828	9919.38
706.588	9881.38
707.347	9899.38
708.107	9862.38
708.867	9839.38
709.626	9814.38
710.386	9753.38
711.145	9694.38
711.904	9672.38
712.664	9588.38
713.423	9536.38
714.182	9435.38
714.941	9342.38
715.7	9235.38
716.459	9181.38
717.218	9112.38
717.976	9013.38
718.735	8982.38
719.494	8923.38
720.252	8846.38
721.011	8753.38
721.769	8672.38
722.527	8632.38
723.285	8593.38
724.044	8531.38
724.802	8524.38
725.56	8465.38
726.317	8326.38
727.075	8260.38
727.833	8088.38
728.591	7967.38
729.348	7794.38
730.106	7634.38
730.863	7483.38
731.621	7357.38
732.378	7162.38
733.135	6982.38
733.893	6830.38
734.65	6743.38
735.407	6630.38
736.164	6484.38
736.92	6357.38
737.677	6235.38
738.434	6171.38
739.191	6053.38
739.947	5983.38
740.704	5890.38
741.46	5822.38
742.216	5735.38
742.973	5662.38
743.729	5570.38
744.485	5519.38
745.241	5434.38
745.997	5367.38
746.753	5290.38
747.509	5244.38
748.265	5147.38
749.02	5102.38
749.776	5031.38
750.531	4969.38
751.287	4868.38
752.042	4791.38
752.798	4749.38
753.553	4718.38
754.308	4636.38
755.063	4555.38
755.818	4512.38
756.573	4447.38
757.328	4395.38
758.083	4320.38
758.837	4262.38
759.592	4176.38
760.347	4118.38
761.101	4073.38
761.855	4033.38
762.61	3934.38
763.364	3873.38
764.118	3810.38
764.872	3739.38
765.626	3651.38
766.38	3617.38
767.134	3538.38
767.888	3448.38
768.642	3380.38
769.396	3319.38
770.149	3272.38
770.903	3234.38
771.656	3151.38
772.409	3106.38
773.163	3046.38
773.916	2985.38
774.669	2929.38
775.422	2906.38
776.175	2836.38
776.928	2771.38
777.681	2740.38
778.434	2695.38
779.186	2651.38
779.939	2582.38
780.692	2530.38
781.444	2486.38
782.197	2440.38
782.949	2401.38
783.701	2353.38
784.453	2305.38
785.205	2269.38
785.957	2205.38
786.709	2182.38
787.461	2182.38
788.213	2126.38
788.965	2076.38
789.716	2044.38
790.468	1994.38
791.22	1974.38
791.971	1959.38
792.722	1923.38
793.474	1884.38
794.225	1846.38
794.976	1815.38
795.727	1796.38
796.478	1763.38
797.229	1742.38
797.98	1686.38
798.731	1632.38
799.481	1636.38
800.232	1614.38
800.982	1576.38
801.733	1536.38
802.483	1511.38
803.233	1479.38
803.984	1457.38
804.734	1422.38
805.484	1391.38
806.234	1369.38
806.984	1342.38
807.734	1307.38
808.484	1262.38
809.233	1237.38
809.983	1197.38
810.732	1197.38
811.482	1161.38
812.231	1135.38
812.981	1107.38
813.73	1081.38
814.479	1060.38
815.228	1040.38
815.977	1016.38
816.726	973.38
817.475	950.38
818.224	932.38
818.973	918.38
819.721	901.38
820.47	883.38
821.219	863.38
821.967	849.38
822.715	829.38
823.464	813.38
824.212	804.38
824.96	796.38
825.708	796.38
826.456	771.38
827.204	765.38
827.952	760.38
828.7	751.38
829.447	745.38
830.195	751.38
830.942	740.38
831.69	737.38
832.437	721.38
833.185	722.38
833.932	717.38
834.679	705.38
835.426	700.38
836.173	695.38
836.92	692.38
837.667	664.38
838.414	662.38
839.16	668.38
839.907	651.38
840.654	650.38
841.4	642.38
842.147	620.38
842.893	611.38
843.639	596.38
844.385	588.38
845.131	573.38
845.877	570.38
846.623	557.38
847.369	546.38
848.115	520.38
848.861	509.38
849.607	506.38
850.352	501.38
851.098	483.38
851.843	475.38
852.588	459.38
853.334	452.38
854.079	428.38
854.824	434.38
855.569	422.38
856.314	422.38
857.059	414.38
857.804	409.38
858.549	393.38
859.293	379.38
860.038	395.38
860.783	382.38
861.527	382.38
862.271	365.38
863.016	376.38
863.76	364.38
864.504	361.38
865.248	361.38
865.992	358.38
866.736	359.38
867.48	364.38
868.224	356.38
868.968	356.38
869.711	349.38
870.455	346.38
871.198	349.38
871.942	349.38
872.685	352.38
873.428	342.38
874.171	340.38
874.915	343.38
875.658	332.38
876.401	336.38
877.143	323.38
877.886	319.38
878.629	320.38
879.372	321.38
880.114	312.38
880.857	311.38
881.599	314.38
882.342	299.38
883.084	306.38
883.826	307.38
884.568	310.38
885.31	312.38
886.052	303.38
886.794	307.38
887.536	314.38
888.278	312.38
889.019	296.38
889.761	312.38
890.503	317.38
891.244	302.38
891.985	316.38
892.727	296.38
893.468	309.38
894.209	305.38
894.95	309.38
895.691	309.38
896.432	306.38
897.173	314.38
897.914	300.38
898.654	304.38
899.395	297.38
900.136	300.38
900.876	306.38
901.617	294.38
902.357	304.38
903.097	297.38
903.837	287.38
904.577	284.38
905.317	289.38
906.057	293.38
906.797	286.38
907.537	284.38
908.277	281.38
909.016	278.38
909.756	279.38
910.496	269.38
911.235	261.38
911.974	261.38
912.714	259.38
913.453	256.38
914.192	249.38
914.931	247.38
915.67	237.38
916.409	229.38
917.148	215.38
917.886	227.38
918.625	224.38
919.364	222.38
920.102	212.38
920.841	211.38
921.579	205.38
922.317	198.38
923.055	191.38
923.794	186.38
924.532	184.38
925.27	178.38
926.008	182.38
926.745	165.38
927.483	157.38
928.221	156.38
928.958	148.38
929.696	143.38
930.433	141.38
931.171	131.38
931.908	132.38
932.645	123.38
933.383	116.38
934.12	111.38
934.857	101.38
935.594	97.38
936.33	94.38
937.067	93.38
937.804	83.38
938.541	78.38
939.277	73.38
940.014	66.38
940.75	71.38
941.486	65.38
942.223	63.38
942.959	66.38
943.695	60.38
944.431	61.38
945.167	55.38
945.903	55.38
946.638	52.38
947.374	54.38
948.11	51.38
948.845	49.38
949.581	48.38
950.316	48.38
951.052	48.38
951.787	46.38
952.522	43.38
953.257	45.38
953.992	44.38
954.727	44.38
955.462	41.38
956.197	43.38
956.932	39.38
957.666	38.38
958.401	43.38
959.135	38.38
959.87	41.38
960.604	38.38
961.339	38.38
962.073	42.38
962.807	37.38
963.541	38.38
964.275	36.38
965.009	39.38
965.743	41.38
966.476	40.38
967.21	41.38
967.944	39.38
968.677	42.38
969.411	40.38
970.144	41.38
970.877	39.38
971.611	38.38
972.344	43.38
973.077	39.38
973.81	41.38
974.543	35.38
975.276	43.38
976.008	43.38
976.741	39.38
977.474	46.38
978.206	44.38
978.939	43.38
979.671	42.38
980.403	38.38
981.136	46.38
981.868	41.38
982.6	44.38
983.332	41.38
984.064	45.38
984.796	44.38
985.527	43.38
986.259	45.38
986.991	3.38
987.722	-0.62
988.454	1.38
989.185	-3.62
989.917	28.38
990.648	24.38
991.379	27.38
992.11	30.38
992.841	30.38
993.572	30.38
994.303	39.38
995.034	43.38
995.764	43.38
996.495	43.38
997.226	45.38
997.956	44.38
998.687	0.38
999.417	0.38
1000.147	-0.62
1000.877	-0.62
