Data from QEPB00791_17-19-12-230.txt Node
Date: Mon Jan 20 17:19:12 MST 2020
User: ecestudent
Spectrometer: QEPB0079
Trigger mode: 0
Integration Time (sec): 8.000000E-3
Scans to average: 1
Electric dark correction enabled: true
Nonlinearity correction enabled: false
Boxcar width: 0
XAxis mode: Wavelengths
Number of Pixels in Spectrum: 1044
>>>>>Begin Spectral Data<<<<<
198.864	28.5
199.671	25.5
200.477	25.5
201.284	22.5
202.091	27.5
202.897	23.5
203.704	26.5
204.51	25.5
205.317	27.5
206.123	26.5
206.929	29.5
207.736	27.5
208.542	27.5
209.348	26.5
210.154	29.5
210.96	25.5
211.765	27.5
212.571	26.5
213.377	29.5
214.182	29.5
214.988	28.5
215.793	30.5
216.599	26.5
217.404	29.5
218.209	29.5
219.015	28.5
219.82	28.5
220.625	28.5
221.43	26.5
222.235	27.5
223.039	29.5
223.844	26.5
224.649	30.5
225.453	30.5
226.258	28.5
227.062	32.5
227.867	29.5
228.671	30.5
229.475	26.5
230.28	33.5
231.084	30.5
231.888	30.5
232.692	31.5
233.496	27.5
234.299	31.5
235.103	29.5
235.907	32.5
236.71	29.5
237.514	29.5
238.317	31.5
239.121	30.5
239.924	32.5
240.727	30.5
241.531	33.5
242.334	34.5
243.137	30.5
243.94	31.5
244.743	29.5
245.545	36.5
246.348	32.5
247.151	32.5
247.954	35.5
248.756	31.5
249.559	35.5
250.361	35.5
251.163	35.5
251.965	35.5
252.768	35.5
253.57	37.5
254.372	34.5
255.174	38.5
255.976	39.5
256.777	36.5
257.579	36.5
258.381	35.5
259.183	38.5
259.984	40.5
260.786	38.5
261.587	39.5
262.388	33.5
263.189	40.5
263.991	40.5
264.792	40.5
265.593	38.5
266.394	41.5
267.195	41.5
267.995	40.5
268.796	46.5
269.597	39.5
270.397	43.5
271.198	44.5
271.998	46.5
272.799	41.5
273.599	46.5
274.399	47.5
275.2	41.5
276	45.5
276.8	46.5
277.6	49.5
278.4	49.5
279.199	49.5
279.999	52.5
280.799	48.5
281.598	52.5
282.398	49.5
283.197	52.5
283.997	55.5
284.796	56.5
285.595	54.5
286.395	53.5
287.194	59.5
287.993	60.5
288.792	62.5
289.59	65.5
290.389	65.5
291.188	66.5
291.987	66.5
292.785	71.5
293.584	73.5
294.382	78.5
295.181	81.5
295.979	80.5
296.777	84.5
297.575	90.5
298.373	94.5
299.171	103.5
299.969	111.5
300.767	118.5
301.565	128.5
302.363	134.5
303.16	142.5
303.958	142.5
304.756	157.5
305.553	153.5
306.35	163.5
307.148	169.5
307.945	186.5
308.742	199.5
309.539	214.5
310.336	227.5
311.133	243.5
311.93	246.5
312.727	260.5
313.524	295.5
314.32	306.5
315.117	322.5
315.913	321.5
316.71	311.5
317.506	321.5
318.302	315.5
319.099	309.5
319.895	303.5
320.691	305.5
321.487	290.5
322.283	293.5
323.079	293.5
323.874	285.5
324.67	296.5
325.466	288.5
326.261	278.5
327.057	283.5
327.852	290.5
328.648	294.5
329.443	293.5
330.238	305.5
331.033	325.5
331.828	342.5
332.623	379.5
333.418	397.5
334.213	408.5
335.008	389.5
335.803	377.5
336.597	368.5
337.392	351.5
338.186	345.5
338.981	351.5
339.775	352.5
340.57	342.5
341.364	353.5
342.158	357.5
342.952	362.5
343.746	366.5
344.54	375.5
345.334	371.5
346.127	375.5
346.921	378.5
347.715	384.5
348.508	389.5
349.302	384.5
350.095	378.5
350.889	397.5
351.682	398.5
352.475	412.5
353.268	420.5
354.061	437.5
354.854	447.5
355.647	460.5
356.44	478.5
357.233	502.5
358.025	533.5
358.818	562.5
359.611	597.5
360.403	662.5
361.195	779.5
361.988	893.5
362.78	1011.5
363.572	1092.5
364.364	1186.5
365.156	1268.5
365.948	1391.5
366.74	1490.5
367.532	1562.5
368.324	1594.5
369.116	1615.5
369.907	1642.5
370.699	1641.5
371.49	1658.5
372.282	1682.5
373.073	1713.5
373.864	1756.5
374.655	1781.5
375.446	1822.5
376.237	1862.5
377.028	1932.5
377.819	2020.5
378.61	2090.5
379.401	2165.5
380.192	2291.5
380.982	2432.5
381.773	2577.5
382.563	2783.5
383.354	3022.5
384.144	3283.5
384.934	3587.5
385.724	3909.5
386.514	4285.5
387.304	4662.5
388.094	5085.5
388.884	5507.5
389.674	5902.5
390.464	6355.5
391.253	6793.5
392.043	7243.5
392.832	7685.5
393.622	8098.5
394.411	8523.5
395.201	8882.5
395.99	9230.5
396.779	9564.5
397.568	9966.5
398.357	10369.5
399.146	10876.5
399.935	11505.5
400.724	12688.5
401.512	14867.5
402.301	18806.5
403.09	24135.5
403.878	29144.5
404.667	32119.5
405.455	32379.5
406.243	30443.5
407.031	27651.5
407.82	24887.5
408.608	22664.5
409.396	21066.5
410.184	20215.5
410.971	19596.5
411.759	19059.5
412.547	18484.5
413.334	17768.5
414.122	17112.5
414.91	16615.5
415.697	16356.5
416.484	16251.5
417.272	16252.5
418.059	16322.5
418.846	16657.5
419.633	16932.5
420.42	17257.5
421.207	17677.5
421.994	18153.5
422.78	18582.5
423.567	18987.5
424.354	19469.5
425.14	19915.5
425.927	20372.5
426.713	21203.5
427.499	22115.5
428.286	23368.5
429.072	24586.5
429.858	25616.5
430.644	26236.5
431.43	26725.5
432.216	27799.5
433.002	30531.5
433.787	34388.5
434.573	38977.5
435.359	43812.5
436.144	47697.5
436.93	49749.5
437.715	49189.5
438.5	46186.5
439.286	41886.5
440.071	37707.5
440.856	34033.5
441.641	31036.5
442.426	28728.5
443.211	26973.5
443.996	25686.5
444.78	24694.5
445.565	23926.5
446.35	23180.5
447.134	22388.5
447.919	21550.5
448.703	20740.5
449.487	20008.5
450.271	19152.5
451.056	18424.5
451.84	17824.5
452.624	17379.5
453.408	17030.5
454.191	16906.5
454.975	16822.5
455.759	16786.5
456.543	16666.5
457.326	16334.5
458.11	15923.5
458.893	15356.5
459.676	14837.5
460.46	14427.5
461.243	14123.5
462.026	13921.5
462.809	13778.5
463.592	13728.5
464.375	13746.5
465.158	13883.5
465.941	13893.5
466.723	14103.5
467.506	14336.5
468.288	14517.5
469.071	14722.5
469.853	15029.5
470.636	15278.5
471.418	15484.5
472.2	15666.5
472.982	15672.5
473.764	15592.5
474.546	15323.5
475.328	15036.5
476.11	14799.5
476.892	14638.5
477.673	14461.5
478.455	14423.5
479.236	14508.5
480.018	14686.5
480.799	14977.5
481.581	15266.5
482.362	15748.5
483.143	16283.5
483.924	16817.5
484.705	17200.5
485.486	17357.5
486.267	17277.5
487.048	16988.5
487.828	16776.5
488.609	16402.5
489.39	15981.5
490.17	15448.5
490.951	14759.5
491.731	13997.5
492.511	13266.5
493.292	12822.5
494.072	12544.5
494.852	12274.5
495.632	12002.5
496.412	11785.5
497.192	11520.5
497.971	11346.5
498.751	11176.5
499.531	11031.5
500.31	10910.5
501.09	10769.5
501.869	10719.5
502.648	10603.5
503.428	10549.5
504.207	10541.5
504.986	10515.5
505.765	10473.5
506.544	10459.5
507.323	10434.5
508.102	10497.5
508.881	10504.5
509.659	10535.5
510.438	10550.5
511.216	10550.5
511.995	10598.5
512.773	10689.5
513.552	10622.5
514.33	10691.5
515.108	10734.5
515.886	10756.5
516.664	10761.5
517.442	10777.5
518.22	10755.5
518.998	10823.5
519.775	10792.5
520.553	10832.5
521.331	10863.5
522.108	10918.5
522.886	10963.5
523.663	11030.5
524.44	11082.5
525.218	11249.5
525.995	11360.5
526.772	11555.5
527.549	11760.5
528.326	12107.5
529.103	12620.5
529.879	13258.5
530.656	14113.5
531.433	14925.5
532.209	15703.5
532.986	16368.5
533.762	16989.5
534.539	17769.5
535.315	18759.5
536.091	19980.5
536.867	21356.5
537.643	22648.5
538.419	23972.5
539.195	24816.5
539.971	25702.5
540.747	26810.5
541.522	28540.5
542.298	32331.5
543.074	41543.5
543.849	56171.5
544.624	63139.5
545.4	63139.5
546.175	63139.5
546.95	63139.5
547.725	63139.5
548.5	63139.5
549.275	63139.5
550.05	63139.5
550.825	63139.5
551.6	63139.5
552.374	61327.5
553.149	54162.5
553.923	49203.5
554.698	44909.5
555.472	41430.5
556.247	38511.5
557.021	35982.5
557.795	34030.5
558.569	32460.5
559.343	31254.5
560.117	30401.5
560.891	29424.5
561.665	28569.5
562.438	27499.5
563.212	26400.5
563.985	25304.5
564.759	24415.5
565.532	23966.5
566.306	23885.5
567.079	24309.5
567.852	25586.5
568.625	27466.5
569.398	30361.5
570.171	34391.5
570.944	39459.5
571.717	45292.5
572.49	51364.5
573.262	57275.5
574.035	62376.5
574.808	63139.5
575.58	63139.5
576.352	63139.5
577.125	63139.5
577.897	63139.5
578.669	60996.5
579.441	57174.5
580.213	53404.5
580.985	49837.5
581.757	46594.5
582.529	43570.5
583.301	40592.5
584.072	37998.5
584.844	35545.5
585.615	33421.5
586.387	31542.5
587.158	29943.5
587.929	28487.5
588.701	27157.5
589.472	26014.5
590.243	24936.5
591.014	24080.5
591.785	23384.5
592.556	22817.5
593.326	22261.5
594.097	21727.5
594.868	21053.5
595.638	20172.5
596.409	19444.5
597.179	18726.5
597.949	18082.5
598.72	17569.5
599.49	17158.5
600.26	16686.5
601.03	16292.5
601.8	15984.5
602.57	15691.5
603.34	15371.5
604.109	15129.5
604.879	14863.5
605.649	14662.5
606.418	14430.5
607.188	14280.5
607.957	14084.5
608.726	13926.5
609.496	13774.5
610.265	13631.5
611.034	13448.5
611.803	13280.5
612.572	13111.5
613.341	12956.5
614.109	12789.5
614.878	12692.5
615.647	12530.5
616.415	12500.5
617.184	12333.5
617.952	12278.5
618.721	12173.5
619.489	12172.5
620.257	12089.5
621.025	11977.5
621.793	11892.5
622.561	11896.5
623.329	11889.5
624.097	11816.5
624.865	11801.5
625.632	11750.5
626.4	11726.5
627.168	11668.5
627.935	11645.5
628.702	11595.5
629.47	11615.5
630.237	11490.5
631.004	11457.5
631.771	11462.5
632.538	11401.5
633.305	11331.5
634.072	11307.5
634.839	11249.5
635.606	11262.5
636.372	11227.5
637.139	11179.5
637.905	11131.5
638.672	11083.5
639.438	11033.5
640.204	10995.5
640.971	10980.5
641.737	10934.5
642.503	10908.5
643.269	10878.5
644.035	10845.5
644.8	10840.5
645.566	10800.5
646.332	10769.5
647.097	10672.5
647.863	10686.5
648.629	10687.5
649.394	10609.5
650.159	10604.5
650.924	10602.5
651.69	10516.5
652.455	10570.5
653.22	10499.5
653.985	10489.5
654.75	10514.5
655.514	10467.5
656.279	10402.5
657.044	10445.5
657.808	10391.5
658.573	10401.5
659.337	10428.5
660.102	10417.5
660.866	10357.5
661.63	10328.5
662.394	10328.5
663.158	10333.5
663.922	10313.5
664.686	10299.5
665.45	10313.5
666.214	10265.5
666.978	10286.5
667.741	10241.5
668.505	10253.5
669.268	10228.5
670.032	10204.5
670.795	10231.5
671.558	10217.5
672.321	10129.5
673.084	10161.5
673.847	10111.5
674.61	10097.5
675.373	10026.5
676.136	10025.5
676.899	10017.5
677.662	10007.5
678.424	10055.5
679.187	9964.5
679.949	9990.5
680.711	9910.5
681.474	9970.5
682.236	9940.5
682.998	9947.5
683.76	9951.5
684.522	9921.5
685.284	9954.5
686.046	9929.5
686.808	9958.5
687.569	9934.5
688.331	9957.5
689.092	9974.5
689.854	10005.5
690.615	10047.5
691.377	10080.5
692.138	10154.5
692.899	10206.5
693.66	10187.5
694.421	10204.5
695.182	10173.5
695.943	10140.5
696.704	10088.5
697.465	10013.5
698.225	9909.5
698.986	9912.5
699.746	9864.5
700.507	9771.5
701.267	9760.5
702.027	9668.5
702.788	9653.5
703.548	9644.5
704.308	9613.5
705.068	9515.5
705.828	9481.5
706.588	9421.5
707.347	9410.5
708.107	9378.5
708.867	9355.5
709.626	9384.5
710.386	9358.5
711.145	9213.5
711.904	9186.5
712.664	9141.5
713.423	9039.5
714.182	8954.5
714.941	8897.5
715.7	8822.5
716.459	8766.5
717.218	8691.5
717.976	8644.5
718.735	8566.5
719.494	8542.5
720.252	8408.5
721.011	8389.5
721.769	8320.5
722.527	8255.5
723.285	8227.5
724.044	8195.5
724.802	8094.5
725.56	8078.5
726.317	7941.5
727.075	7871.5
727.833	7730.5
728.591	7604.5
729.348	7457.5
730.106	7282.5
730.863	7166.5
731.621	7024.5
732.378	6851.5
733.135	6677.5
733.893	6526.5
734.65	6396.5
735.407	6339.5
736.164	6204.5
736.92	6078.5
737.677	5964.5
738.434	5873.5
739.191	5807.5
739.947	5679.5
740.704	5629.5
741.46	5559.5
742.216	5472.5
742.973	5421.5
743.729	5292.5
744.485	5250.5
745.241	5187.5
745.997	5102.5
746.753	5084.5
747.509	4960.5
748.265	4935.5
749.02	4811.5
749.776	4777.5
750.531	4715.5
751.287	4680.5
752.042	4604.5
752.798	4499.5
753.553	4472.5
754.308	4439.5
755.063	4381.5
755.818	4311.5
756.573	4212.5
757.328	4160.5
758.083	4117.5
758.837	4064.5
759.592	3990.5
760.347	3911.5
761.101	3867.5
761.855	3800.5
762.61	3748.5
763.364	3692.5
764.118	3618.5
764.872	3555.5
765.626	3496.5
766.38	3441.5
767.134	3371.5
767.888	3290.5
768.642	3222.5
769.396	3177.5
770.149	3129.5
770.903	3071.5
771.656	3027.5
772.409	2957.5
773.163	2906.5
773.916	2845.5
774.669	2798.5
775.422	2781.5
776.175	2678.5
776.928	2637.5
777.681	2607.5
778.434	2562.5
779.186	2520.5
779.939	2449.5
780.692	2403.5
781.444	2349.5
782.197	2327.5
782.949	2286.5
783.701	2231.5
784.453	2199.5
785.205	2159.5
785.957	2113.5
786.709	2082.5
787.461	2060.5
788.213	2009.5
788.965	1993.5
789.716	1931.5
790.468	1913.5
791.22	1867.5
791.971	1838.5
792.722	1815.5
793.474	1783.5
794.225	1744.5
794.976	1731.5
795.727	1694.5
796.478	1658.5
797.229	1631.5
797.98	1585.5
798.731	1560.5
799.481	1530.5
800.232	1514.5
800.982	1486.5
801.733	1462.5
802.483	1430.5
803.233	1395.5
803.984	1372.5
804.734	1338.5
805.484	1323.5
806.234	1292.5
806.984	1275.5
807.734	1231.5
808.484	1198.5
809.233	1186.5
809.983	1147.5
810.732	1131.5
811.482	1095.5
812.231	1084.5
812.981	1043.5
813.73	1024.5
814.479	1003.5
815.228	986.5
815.977	951.5
816.726	939.5
817.475	909.5
818.224	890.5
818.973	863.5
819.721	867.5
820.47	838.5
821.219	831.5
821.967	799.5
822.715	797.5
823.464	769.5
824.212	776.5
824.96	774.5
825.708	754.5
826.456	748.5
827.204	741.5
827.952	733.5
828.7	729.5
829.447	708.5
830.195	721.5
830.942	713.5
831.69	710.5
832.437	699.5
833.185	698.5
833.932	679.5
834.679	681.5
835.426	682.5
836.173	673.5
836.92	659.5
837.667	646.5
838.414	633.5
839.16	630.5
839.907	626.5
840.654	615.5
841.4	607.5
842.147	593.5
842.893	578.5
843.639	560.5
844.385	559.5
845.131	542.5
845.877	540.5
846.623	532.5
847.369	507.5
848.115	497.5
848.861	480.5
849.607	465.5
850.352	470.5
851.098	467.5
851.843	450.5
852.588	434.5
853.334	425.5
854.079	406.5
854.824	401.5
855.569	408.5
856.314	400.5
857.059	393.5
857.804	380.5
858.549	379.5
859.293	375.5
860.038	367.5
860.783	370.5
861.527	355.5
862.271	355.5
863.016	351.5
863.76	352.5
864.504	342.5
865.248	339.5
865.992	345.5
866.736	333.5
867.48	336.5
868.224	337.5
868.968	334.5
869.711	329.5
870.455	331.5
871.198	331.5
871.942	334.5
872.685	331.5
873.428	328.5
874.171	321.5
874.915	321.5
875.658	316.5
876.401	319.5
877.143	310.5
877.886	312.5
878.629	309.5
879.372	307.5
880.114	300.5
880.857	301.5
881.599	292.5
882.342	298.5
883.084	302.5
883.826	303.5
884.568	299.5
885.31	302.5
886.052	294.5
886.794	284.5
887.536	299.5
888.278	293.5
889.019	304.5
889.761	297.5
890.503	303.5
891.244	302.5
891.985	292.5
892.727	295.5
893.468	292.5
894.209	290.5
894.95	299.5
895.691	301.5
896.432	299.5
897.173	301.5
897.914	293.5
898.654	292.5
899.395	289.5
900.136	289.5
900.876	295.5
901.617	290.5
902.357	291.5
903.097	288.5
903.837	278.5
904.577	275.5
905.317	265.5
906.057	270.5
906.797	273.5
907.537	270.5
908.277	269.5
909.016	257.5
909.756	260.5
910.496	248.5
911.235	253.5
911.974	244.5
912.714	247.5
913.453	243.5
914.192	237.5
914.931	232.5
915.67	225.5
916.409	222.5
917.148	220.5
917.886	215.5
918.625	212.5
919.364	203.5
920.102	201.5
920.841	195.5
921.579	192.5
922.317	193.5
923.055	180.5
923.794	177.5
924.532	169.5
925.27	170.5
926.008	158.5
926.745	164.5
927.483	154.5
928.221	149.5
928.958	144.5
929.696	138.5
930.433	130.5
931.171	123.5
931.908	121.5
932.645	117.5
933.383	106.5
934.12	103.5
934.857	95.5
935.594	89.5
936.33	87.5
937.067	84.5
937.804	79.5
938.541	72.5
939.277	67.5
940.014	65.5
940.75	66.5
941.486	59.5
942.223	59.5
942.959	58.5
943.695	56.5
944.431	53.5
945.167	54.5
945.903	51.5
946.638	51.5
947.374	50.5
948.11	49.5
948.845	42.5
949.581	46.5
950.316	41.5
951.052	43.5
951.787	41.5
952.522	38.5
953.257	41.5
953.992	37.5
954.727	38.5
955.462	38.5
956.197	37.5
956.932	40.5
957.666	34.5
958.401	39.5
959.135	33.5
959.87	34.5
960.604	33.5
961.339	39.5
962.073	38.5
962.807	33.5
963.541	37.5
964.275	37.5
965.009	35.5
965.743	33.5
966.476	33.5
967.21	39.5
967.944	33.5
968.677	40.5
969.411	33.5
970.144	37.5
970.877	35.5
971.611	34.5
972.344	37.5
973.077	34.5
973.81	41.5
974.543	35.5
975.276	40.5
976.008	37.5
976.741	36.5
977.474	38.5
978.206	38.5
978.939	38.5
979.671	41.5
980.403	39.5
981.136	41.5
981.868	40.5
982.6	41.5
983.332	40.5
984.064	42.5
984.796	42.5
985.527	41.5
986.259	42.5
986.991	4.5
987.722	-2.5
988.454	-0.5
989.185	0.5
989.917	26.5
990.648	26.5
991.379	23.5
992.11	26.5
992.841	24.5
993.572	27.5
994.303	38.5
995.034	42.5
995.764	44.5
996.495	42.5
997.226	43.5
997.956	43.5
998.687	0.5
999.417	-0.5
1000.147	-1.5
1000.877	-0.5
