Data from QEPB00791_17-08-18-546.txt Node
Date: Mon Jan 20 17:08:18 MST 2020
User: ecestudent
Spectrometer: QEPB0079
Trigger mode: 0
Integration Time (sec): 8.000000E-3
Scans to average: 1
Electric dark correction enabled: true
Nonlinearity correction enabled: false
Boxcar width: 0
XAxis mode: Wavelengths
Number of Pixels in Spectrum: 1044
>>>>>Begin Spectral Data<<<<<
198.864	33.5
199.671	33.5
200.477	30.5
201.284	30.5
202.091	30.5
202.897	36.5
203.704	32.5
204.51	31.5
205.317	29.5
206.123	30.5
206.929	33.5
207.736	33.5
208.542	35.5
209.348	33.5
210.154	37.5
210.96	32.5
211.765	32.5
212.571	33.5
213.377	35.5
214.182	34.5
214.988	34.5
215.793	34.5
216.599	33.5
217.404	35.5
218.209	36.5
219.015	34.5
219.82	36.5
220.625	34.5
221.43	37.5
222.235	36.5
223.039	38.5
223.844	37.5
224.649	37.5
225.453	39.5
226.258	38.5
227.062	37.5
227.867	38.5
228.671	39.5
229.475	38.5
230.28	37.5
231.084	37.5
231.888	34.5
232.692	36.5
233.496	40.5
234.299	40.5
235.103	37.5
235.907	36.5
236.71	37.5
237.514	39.5
238.317	34.5
239.121	42.5
239.924	42.5
240.727	44.5
241.531	42.5
242.334	42.5
243.137	47.5
243.94	46.5
244.743	46.5
245.545	43.5
246.348	46.5
247.151	46.5
247.954	47.5
248.756	48.5
249.559	44.5
250.361	46.5
251.163	47.5
251.965	49.5
252.768	46.5
253.57	49.5
254.372	53.5
255.174	49.5
255.976	51.5
256.777	51.5
257.579	48.5
258.381	57.5
259.183	51.5
259.984	52.5
260.786	54.5
261.587	57.5
262.388	53.5
263.189	59.5
263.991	57.5
264.792	59.5
265.593	61.5
266.394	59.5
267.195	60.5
267.995	62.5
268.796	62.5
269.597	65.5
270.397	60.5
271.198	66.5
271.998	66.5
272.799	70.5
273.599	70.5
274.399	67.5
275.2	74.5
276	72.5
276.8	71.5
277.6	75.5
278.4	77.5
279.199	82.5
279.999	82.5
280.799	90.5
281.598	85.5
282.398	90.5
283.197	83.5
283.997	91.5
284.796	94.5
285.595	95.5
286.395	97.5
287.194	103.5
287.993	107.5
288.792	109.5
289.59	110.5
290.389	115.5
291.188	123.5
291.987	122.5
292.785	133.5
293.584	138.5
294.382	142.5
295.181	150.5
295.979	161.5
296.777	172.5
297.575	179.5
298.373	188.5
299.171	207.5
299.969	222.5
300.767	231.5
301.565	252.5
302.363	270.5
303.16	274.5
303.958	289.5
304.756	312.5
305.553	321.5
306.35	344.5
307.148	369.5
307.945	402.5
308.742	420.5
309.539	465.5
310.336	485.5
311.133	530.5
311.93	568.5
312.727	611.5
313.524	668.5
314.32	730.5
315.117	773.5
315.913	817.5
316.71	834.5
317.506	849.5
318.302	852.5
319.099	872.5
319.895	876.5
320.691	896.5
321.487	911.5
322.283	946.5
323.079	954.5
323.874	996.5
324.67	1001.5
325.466	1027.5
326.261	1047.5
327.057	1062.5
327.852	1114.5
328.648	1175.5
329.443	1260.5
330.238	1361.5
331.033	1497.5
331.828	1671.5
332.623	1875.5
333.418	2042.5
334.213	2159.5
335.008	2172.5
335.803	2139.5
336.597	2086.5
337.392	2094.5
338.186	2104.5
338.981	2185.5
339.775	2253.5
340.57	2314.5
341.364	2402.5
342.158	2514.5
342.952	2636.5
343.746	2702.5
344.54	2815.5
345.334	2876.5
346.127	2950.5
346.921	2999.5
347.715	3036.5
348.508	3082.5
349.302	3085.5
350.095	3085.5
350.889	3142.5
351.682	3196.5
352.475	3307.5
353.268	3383.5
354.061	3461.5
354.854	3601.5
355.647	3664.5
356.44	3838.5
357.233	3997.5
358.025	4274.5
358.818	4593.5
359.611	5189.5
360.403	6098.5
361.195	7503.5
361.988	9213.5
362.78	10725.5
363.572	11678.5
364.364	12442.5
365.156	12940.5
365.948	13704.5
366.74	14115.5
367.532	13992.5
368.324	13481.5
369.116	12807.5
369.907	12032.5
370.699	11387.5
371.49	10715.5
372.282	10210.5
373.073	9745.5
373.864	9385.5
374.655	9093.5
375.446	8802.5
376.237	8592.5
377.028	8452.5
377.819	8406.5
378.61	8319.5
379.401	8227.5
380.192	8267.5
380.982	8259.5
381.773	8350.5
382.563	8402.5
383.354	8520.5
384.144	8613.5
384.934	8725.5
385.724	8834.5
386.514	8919.5
387.304	8968.5
388.094	9005.5
388.884	9041.5
389.674	9058.5
390.464	9133.5
391.253	9215.5
392.043	9389.5
392.832	9517.5
393.622	9679.5
394.411	9854.5
395.201	10038.5
395.99	10243.5
396.779	10376.5
397.568	10669.5
398.357	10960.5
399.146	11313.5
399.935	11876.5
400.724	12927.5
401.512	15096.5
402.301	19102.5
403.09	24258.5
403.878	29322.5
404.667	32323.5
405.455	32420.5
406.243	30599.5
407.031	27654.5
407.82	24807.5
408.608	22546.5
409.396	20944.5
410.184	20081.5
410.971	19481.5
411.759	18879.5
412.547	18317.5
413.334	17596.5
414.122	16975.5
414.91	16459.5
415.697	16166.5
416.484	16083.5
417.272	16109.5
418.059	16206.5
418.846	16400.5
419.633	16707.5
420.42	17087.5
421.207	17474.5
421.994	17877.5
422.78	18333.5
423.567	18770.5
424.354	19161.5
425.14	19632.5
425.927	20173.5
426.713	20879.5
427.499	21769.5
428.286	22996.5
429.072	24259.5
429.858	25252.5
430.644	25821.5
431.43	26335.5
432.216	27394.5
433.002	30206.5
433.787	34063.5
434.573	38564.5
435.359	43433.5
436.144	47392.5
436.93	49426.5
437.715	48784.5
438.5	45713.5
439.286	41456.5
440.071	37201.5
440.856	33604.5
441.641	30656.5
442.426	28361.5
443.211	26608.5
443.996	25357.5
444.78	24391.5
445.565	23587.5
446.35	22874.5
447.134	22028.5
447.919	21231.5
448.703	20422.5
449.487	19643.5
450.271	18858.5
451.056	18113.5
451.84	17487.5
452.624	17033.5
453.408	16703.5
454.191	16590.5
454.975	16570.5
455.759	16474.5
456.543	16350.5
457.326	16056.5
458.11	15642.5
458.893	15124.5
459.676	14693.5
460.46	14223.5
461.243	13918.5
462.026	13692.5
462.809	13579.5
463.592	13522.5
464.375	13478.5
465.158	13606.5
465.941	13653.5
466.723	13877.5
467.506	14051.5
468.288	14303.5
469.071	14537.5
469.853	14701.5
470.636	14987.5
471.418	15253.5
472.2	15440.5
472.982	15416.5
473.764	15308.5
474.546	15033.5
475.328	14775.5
476.11	14548.5
476.892	14374.5
477.673	14229.5
478.455	14256.5
479.236	14254.5
480.018	14453.5
480.799	14676.5
481.581	14964.5
482.362	15424.5
483.143	15960.5
483.924	16512.5
484.705	16890.5
485.486	17040.5
486.267	16998.5
487.048	16745.5
487.828	16480.5
488.609	16160.5
489.39	15731.5
490.17	15177.5
490.951	14533.5
491.731	13799.5
492.511	13055.5
493.292	12641.5
494.072	12278.5
494.852	12052.5
495.632	11781.5
496.412	11594.5
497.192	11348.5
497.971	11132.5
498.751	10941.5
499.531	10833.5
500.31	10712.5
501.09	10696.5
501.869	10516.5
502.648	10429.5
503.428	10378.5
504.207	10348.5
504.986	10318.5
505.765	10281.5
506.544	10265.5
507.323	10341.5
508.102	10303.5
508.881	10295.5
509.659	10351.5
510.438	10369.5
511.216	10448.5
511.995	10383.5
512.773	10451.5
513.552	10504.5
514.33	10499.5
515.108	10521.5
515.886	10551.5
516.664	10597.5
517.442	10581.5
518.22	10570.5
518.998	10598.5
519.775	10560.5
520.553	10645.5
521.331	10697.5
522.108	10717.5
522.886	10774.5
523.663	10822.5
524.44	10893.5
525.218	11048.5
525.995	11159.5
526.772	11360.5
527.549	11539.5
528.326	11882.5
529.103	12405.5
529.879	12987.5
530.656	13818.5
531.433	14605.5
532.209	15402.5
532.986	16028.5
533.762	16721.5
534.539	17487.5
535.315	18479.5
536.091	19622.5
536.867	20955.5
537.643	22271.5
538.419	23429.5
539.195	24422.5
539.971	25255.5
540.747	26294.5
541.522	28040.5
542.298	31752.5
543.074	40763.5
543.849	55170.5
544.624	63139.5
545.4	63139.5
546.175	63139.5
546.95	63139.5
547.725	63139.5
548.5	63139.5
549.275	63139.5
550.05	63139.5
550.825	63139.5
551.6	63139.5
552.374	60326.5
553.149	53327.5
553.923	48476.5
554.698	44251.5
555.472	40803.5
556.247	37815.5
557.021	35478.5
557.795	33443.5
558.569	31904.5
559.343	30761.5
560.117	29787.5
560.891	28987.5
561.665	27957.5
562.438	26984.5
563.212	25991.5
563.985	24912.5
564.759	24111.5
565.532	23544.5
566.306	23531.5
567.079	23920.5
567.852	25095.5
568.625	27066.5
569.398	29900.5
570.171	33888.5
570.944	38683.5
571.717	44432.5
572.49	50720.5
573.262	56497.5
574.035	61571.5
574.808	63139.5
575.58	63139.5
576.352	63139.5
577.125	63139.5
577.897	63139.5
578.669	60261.5
579.441	56259.5
580.213	52826.5
580.985	49171.5
581.757	45940.5
582.529	42888.5
583.301	39907.5
584.072	37331.5
584.844	34982.5
585.615	32747.5
586.387	31102.5
587.158	29366.5
587.929	28041.5
588.701	26823.5
589.472	25630.5
590.243	24563.5
591.014	23688.5
591.785	22951.5
592.556	22546.5
593.326	21982.5
594.097	21387.5
594.868	20825.5
595.638	19843.5
596.409	19167.5
597.179	18424.5
597.949	17778.5
598.72	17313.5
599.49	16799.5
600.26	16437.5
601.03	16071.5
601.8	15731.5
602.57	15415.5
603.34	15080.5
604.109	14849.5
604.879	14646.5
605.649	14434.5
606.418	14137.5
607.188	14038.5
607.957	13914.5
608.726	13662.5
609.496	13567.5
610.265	13401.5
611.034	13172.5
611.803	13054.5
612.572	12876.5
613.341	12729.5
614.109	12578.5
614.878	12457.5
615.647	12359.5
616.415	12290.5
617.184	12153.5
617.952	12070.5
618.721	12030.5
619.489	11888.5
620.257	11845.5
621.025	11829.5
621.793	11763.5
622.561	11733.5
623.329	11702.5
624.097	11627.5
624.865	11595.5
625.632	11609.5
626.4	11545.5
627.168	11494.5
627.935	11467.5
628.702	11434.5
629.47	11406.5
630.237	11340.5
631.004	11323.5
631.771	11201.5
632.538	11199.5
633.305	11158.5
634.072	11120.5
634.839	11097.5
635.606	11069.5
636.372	11053.5
637.139	11025.5
637.905	10963.5
638.672	10935.5
639.438	10877.5
640.204	10858.5
640.971	10789.5
641.737	10775.5
642.503	10746.5
643.269	10713.5
644.035	10673.5
644.8	10686.5
645.566	10638.5
646.332	10603.5
647.097	10554.5
647.863	10522.5
648.629	10456.5
649.394	10500.5
650.159	10445.5
650.924	10394.5
651.69	10376.5
652.455	10363.5
653.22	10355.5
653.985	10302.5
654.75	10298.5
655.514	10271.5
656.279	10214.5
657.044	10247.5
657.808	10226.5
658.573	10223.5
659.337	10185.5
660.102	10206.5
660.866	10193.5
661.63	10165.5
662.394	10192.5
663.158	10186.5
663.922	10155.5
664.686	10119.5
665.45	10153.5
666.214	10094.5
666.978	10076.5
667.741	10086.5
668.505	10106.5
669.268	10111.5
670.032	10066.5
670.795	10061.5
671.558	10039.5
672.321	9998.5
673.084	9918.5
673.847	9947.5
674.61	9922.5
675.373	9879.5
676.136	9883.5
676.899	9879.5
677.662	9864.5
678.424	9807.5
679.187	9873.5
679.949	9800.5
680.711	9796.5
681.474	9810.5
682.236	9809.5
682.998	9787.5
683.76	9741.5
684.522	9811.5
685.284	9798.5
686.046	9754.5
686.808	9756.5
687.569	9760.5
688.331	9782.5
689.092	9771.5
689.854	9792.5
690.615	9864.5
691.377	9914.5
692.138	9937.5
692.899	10056.5
693.66	10037.5
694.421	10065.5
695.182	9987.5
695.943	9996.5
696.704	9893.5
697.465	9847.5
698.225	9785.5
698.986	9742.5
699.746	9695.5
700.507	9611.5
701.267	9587.5
702.027	9546.5
702.788	9496.5
703.548	9451.5
704.308	9430.5
705.068	9446.5
705.828	9366.5
706.588	9312.5
707.347	9258.5
708.107	9255.5
708.867	9238.5
709.626	9207.5
710.386	9160.5
711.145	9163.5
711.904	9088.5
712.664	8974.5
713.423	8928.5
714.182	8869.5
714.941	8768.5
715.7	8687.5
716.459	8636.5
717.218	8588.5
717.976	8472.5
718.735	8409.5
719.494	8366.5
720.252	8344.5
721.011	8241.5
721.769	8125.5
722.527	8136.5
723.285	8078.5
724.044	8063.5
724.802	7966.5
725.56	7903.5
726.317	7822.5
727.075	7745.5
727.833	7583.5
728.591	7466.5
729.348	7350.5
730.106	7161.5
730.863	7006.5
731.621	6866.5
732.378	6724.5
733.135	6631.5
733.893	6434.5
734.65	6273.5
735.407	6229.5
736.164	6129.5
736.92	5992.5
737.677	5870.5
738.434	5762.5
739.191	5734.5
739.947	5630.5
740.704	5502.5
741.46	5434.5
742.216	5407.5
742.973	5347.5
743.729	5233.5
744.485	5157.5
745.241	5079.5
745.997	5049.5
746.753	4981.5
747.509	4853.5
748.265	4841.5
749.02	4794.5
749.776	4757.5
750.531	4660.5
751.287	4580.5
752.042	4529.5
752.798	4486.5
753.553	4395.5
754.308	4304.5
755.063	4289.5
755.818	4252.5
756.573	4173.5
757.328	4101.5
758.083	4055.5
758.837	4014.5
759.592	3962.5
760.347	3876.5
761.101	3807.5
761.855	3741.5
762.61	3705.5
763.364	3630.5
764.118	3564.5
764.872	3483.5
765.626	3486.5
766.38	3426.5
767.134	3335.5
767.888	3237.5
768.642	3172.5
769.396	3119.5
770.149	3089.5
770.903	3013.5
771.656	2939.5
772.409	2886.5
773.163	2885.5
773.916	2829.5
774.669	2772.5
775.422	2711.5
776.175	2673.5
776.928	2652.5
777.681	2599.5
778.434	2506.5
779.186	2461.5
779.939	2437.5
780.692	2406.5
781.444	2350.5
782.197	2303.5
782.949	2252.5
783.701	2228.5
784.453	2190.5
785.205	2149.5
785.957	2074.5
786.709	2059.5
787.461	2058.5
788.213	2027.5
788.965	1965.5
789.716	1917.5
790.468	1907.5
791.22	1890.5
791.971	1865.5
792.722	1815.5
793.474	1775.5
794.225	1743.5
794.976	1724.5
795.727	1706.5
796.478	1669.5
797.229	1627.5
797.98	1587.5
798.731	1579.5
799.481	1539.5
800.232	1507.5
800.982	1477.5
801.733	1446.5
802.483	1439.5
803.233	1408.5
803.984	1364.5
804.734	1329.5
805.484	1300.5
806.234	1289.5
806.984	1260.5
807.734	1241.5
808.484	1194.5
809.233	1152.5
809.983	1156.5
810.732	1141.5
811.482	1114.5
812.231	1062.5
812.981	1029.5
813.73	994.5
814.479	994.5
815.228	967.5
815.977	941.5
816.726	902.5
817.475	891.5
818.224	873.5
818.973	849.5
819.721	838.5
820.47	811.5
821.219	802.5
821.967	798.5
822.715	774.5
823.464	764.5
824.212	741.5
824.96	725.5
825.708	744.5
826.456	734.5
827.204	733.5
827.952	726.5
828.7	698.5
829.447	698.5
830.195	705.5
830.942	716.5
831.69	694.5
832.437	676.5
833.185	667.5
833.932	666.5
834.679	673.5
835.426	662.5
836.173	651.5
836.92	652.5
837.667	640.5
838.414	635.5
839.16	630.5
839.907	634.5
840.654	613.5
841.4	593.5
842.147	595.5
842.893	585.5
843.639	569.5
844.385	551.5
845.131	537.5
845.877	530.5
846.623	533.5
847.369	526.5
848.115	494.5
848.861	493.5
849.607	477.5
850.352	464.5
851.098	466.5
851.843	459.5
852.588	447.5
853.334	425.5
854.079	413.5
854.824	408.5
855.569	404.5
856.314	406.5
857.059	393.5
857.804	378.5
858.549	367.5
859.293	366.5
860.038	362.5
860.783	375.5
861.527	364.5
862.271	360.5
863.016	346.5
863.76	340.5
864.504	346.5
865.248	345.5
865.992	343.5
866.736	329.5
867.48	331.5
868.224	337.5
868.968	329.5
869.711	338.5
870.455	330.5
871.198	323.5
871.942	325.5
872.685	325.5
873.428	322.5
874.171	321.5
874.915	321.5
875.658	303.5
876.401	297.5
877.143	308.5
877.886	307.5
878.629	309.5
879.372	295.5
880.114	294.5
880.857	282.5
881.599	288.5
882.342	296.5
883.084	293.5
883.826	299.5
884.568	289.5
885.31	286.5
886.052	287.5
886.794	285.5
887.536	288.5
888.278	291.5
889.019	290.5
889.761	293.5
890.503	287.5
891.244	290.5
891.985	283.5
892.727	292.5
893.468	288.5
894.209	280.5
894.95	281.5
895.691	295.5
896.432	292.5
897.173	294.5
897.914	291.5
898.654	287.5
899.395	284.5
900.136	281.5
900.876	290.5
901.617	289.5
902.357	284.5
903.097	277.5
903.837	273.5
904.577	274.5
905.317	271.5
906.057	268.5
906.797	275.5
907.537	274.5
908.277	266.5
909.016	256.5
909.756	253.5
910.496	245.5
911.235	252.5
911.974	255.5
912.714	247.5
913.453	247.5
914.192	233.5
914.931	226.5
915.67	228.5
916.409	217.5
917.148	218.5
917.886	215.5
918.625	212.5
919.364	207.5
920.102	198.5
920.841	201.5
921.579	196.5
922.317	189.5
923.055	186.5
923.794	174.5
924.532	171.5
925.27	165.5
926.008	167.5
926.745	160.5
927.483	159.5
928.221	147.5
928.958	141.5
929.696	141.5
930.433	130.5
931.171	128.5
931.908	121.5
932.645	120.5
933.383	110.5
934.12	102.5
934.857	99.5
935.594	91.5
936.33	92.5
937.067	85.5
937.804	80.5
938.541	78.5
939.277	68.5
940.014	69.5
940.75	64.5
941.486	65.5
942.223	60.5
942.959	59.5
943.695	62.5
944.431	58.5
945.167	57.5
945.903	54.5
946.638	52.5
947.374	53.5
948.11	50.5
948.845	50.5
949.581	44.5
950.316	43.5
951.052	47.5
951.787	44.5
952.522	43.5
953.257	39.5
953.992	41.5
954.727	40.5
955.462	39.5
956.197	40.5
956.932	41.5
957.666	40.5
958.401	37.5
959.135	39.5
959.87	34.5
960.604	38.5
961.339	36.5
962.073	38.5
962.807	39.5
963.541	34.5
964.275	40.5
965.009	37.5
965.743	38.5
966.476	38.5
967.21	34.5
967.944	38.5
968.677	37.5
969.411	38.5
970.144	38.5
970.877	34.5
971.611	41.5
972.344	36.5
973.077	40.5
973.81	38.5
974.543	41.5
975.276	40.5
976.008	41.5
976.741	40.5
977.474	38.5
978.206	42.5
978.939	37.5
979.671	39.5
980.403	44.5
981.136	42.5
981.868	43.5
982.6	41.5
983.332	43.5
984.064	40.5
984.796	40.5
985.527	45.5
986.259	41.5
986.991	3.5
987.722	-0.5
988.454	-3.5
989.185	-1.5
989.917	28.5
990.648	31.5
991.379	28.5
992.11	32.5
992.841	32.5
993.572	30.5
994.303	47.5
995.034	42.5
995.764	44.5
996.495	47.5
997.226	46.5
997.956	46.5
998.687	-0.5
999.417	1.5
1000.147	1.5
1000.877	-0.5
