Data from FLMS155811_12-31-53-346.txt Node
Date: Mon Mar 23 12:31:53 MDT 2020
User: ECEn Student
Spectrometer: FLMS15581
Trigger mode: 0
Integration Time (sec): 1.000000E-1
Scans to average: 1
Electric dark correction enabled: true
Nonlinearity correction enabled: false
Boxcar width: 0
XAxis mode: Wavelengths
Number of Pixels in Spectrum: 2048
>>>>>Begin Spectral Data<<<<<
298.026	-24.54
298.106	-24.54
298.185	-24.54
298.265	-22.24
298.344	-95.71
298.424	-38.31
298.503	-61.27
298.583	-88.83
298.662	-116.38
298.741	-33.72
298.821	-17.65
298.9	-15.35
298.98	12.2
299.059	-38.31
299.138	48.93
299.217	-13.06
299.297	35.16
299.376	58.12
299.455	-8.47
299.535	127
299.614	149.96
299.693	92.56
299.772	122.41
299.852	143.07
299.931	216.54
300.01	218.84
300.089	184.4
300.168	296.9
300.247	246.39
300.327	264.76
300.406	317.57
300.485	322.16
300.564	324.45
300.643	322.16
300.722	312.97
300.801	347.41
300.88	423.18
300.959	310.68
301.038	404.82
301.117	358.89
301.196	363.49
301.275	414
301.354	414
301.433	386.45
301.512	372.67
301.591	347.41
301.67	400.22
301.749	436.96
301.828	436.96
301.907	356.6
301.985	395.63
302.064	420.89
302.143	384.15
302.222	365.78
302.301	409.41
302.38	391.04
302.458	432.37
302.537	345.12
302.616	331.34
302.695	301.49
302.773	365.78
302.852	358.89
302.931	416.3
303.01	340.53
303.088	349.71
303.167	326.75
303.246	326.75
303.324	384.15
303.403	381.86
303.481	331.34
303.56	324.45
303.639	379.56
303.717	381.86
303.796	379.56
303.874	368.08
303.953	347.41
304.032	379.56
304.11	379.56
304.189	356.6
304.267	312.97
304.346	326.75
304.424	365.78
304.502	434.66
304.581	386.45
304.659	326.75
304.738	365.78
304.816	349.71
304.895	338.23
304.973	290.01
305.051	329.05
305.13	340.53
305.208	308.38
305.286	363.49
305.365	365.78
305.443	326.75
305.521	303.79
305.6	315.27
305.678	324.45
305.756	368.08
305.834	361.19
305.913	340.53
305.991	342.82
306.069	319.86
306.147	322.16
306.225	361.19
306.304	372.67
306.382	416.3
306.46	372.67
306.538	322.16
306.616	407.11
306.694	342.82
306.772	347.41
306.85	448.44
306.929	349.71
307.007	407.11
307.085	365.78
307.163	395.63
307.241	299.2
307.319	372.67
307.397	374.97
307.475	395.63
307.553	368.08
307.631	315.27
307.709	416.3
307.786	326.75
307.864	386.45
307.942	423.18
308.02	324.45
308.098	333.64
308.176	347.41
308.254	455.33
308.332	340.53
308.409	402.52
308.487	347.41
308.565	501.25
308.643	379.56
308.721	335.93
308.798	322.16
308.876	303.79
308.954	393.34
309.032	407.11
309.109	365.78
309.187	335.93
309.265	363.49
309.342	335.93
309.42	352.01
309.498	400.22
309.575	315.27
309.653	370.38
309.731	402.52
309.808	388.74
309.886	356.6
309.963	356.6
310.041	379.56
310.119	395.63
310.196	352.01
310.274	299.2
310.351	363.49
310.429	407.11
310.506	280.83
310.584	370.38
310.661	462.22
310.738	407.11
310.816	374.97
310.893	425.48
310.971	374.97
311.048	324.45
311.126	374.97
311.203	377.26
311.28	365.78
311.358	377.26
311.435	397.93
311.512	377.26
311.59	381.86
311.667	469.1
311.744	386.45
311.821	411.7
311.899	335.93
311.976	329.05
312.053	418.59
312.13	331.34
312.208	395.63
312.285	356.6
312.362	404.82
312.439	365.78
312.516	363.49
312.593	386.45
312.671	345.12
312.748	372.67
312.825	381.86
312.902	329.05
312.979	381.86
313.056	310.68
313.133	352.01
313.21	384.15
313.287	354.3
313.364	397.93
313.441	331.34
313.518	370.38
313.595	409.41
313.672	374.97
313.749	352.01
313.826	409.41
313.903	338.23
313.98	352.01
314.057	368.08
314.134	374.97
314.211	361.19
314.287	414
314.364	278.53
314.441	404.82
314.518	418.59
314.595	416.3
314.672	358.89
314.748	379.56
314.825	363.49
314.902	388.74
314.979	416.3
315.055	395.63
315.132	384.15
315.209	365.78
315.286	393.34
315.362	374.97
315.439	368.08
315.516	349.71
315.592	377.26
315.669	349.71
315.746	455.33
315.822	386.45
315.899	349.71
315.975	377.26
316.052	391.04
316.128	370.38
316.205	381.86
316.282	441.55
316.358	358.89
316.435	430.07
316.511	374.97
316.588	379.56
316.664	414
316.741	345.12
316.817	345.12
316.893	354.3
316.97	365.78
317.046	404.82
317.123	420.89
317.199	384.15
317.275	356.6
317.352	386.45
317.428	391.04
317.504	450.74
317.581	349.71
317.657	326.75
317.733	381.86
317.81	370.38
317.886	354.3
317.962	372.67
318.038	379.56
318.115	379.56
318.191	356.6
318.267	434.66
318.343	439.26
318.419	370.38
318.496	384.15
318.572	354.3
318.648	379.56
318.724	400.22
318.8	370.38
318.876	377.26
318.952	430.07
319.028	347.41
319.105	407.11
319.181	356.6
319.257	423.18
319.333	349.71
319.409	381.86
319.485	388.74
319.561	414
319.637	414
319.713	386.45
319.789	384.15
319.865	397.93
319.94	395.63
320.016	418.59
320.092	446.14
320.168	372.67
320.244	407.11
320.32	414
320.396	388.74
320.472	393.34
320.547	397.93
320.623	361.19
320.699	400.22
320.775	388.74
320.851	432.37
320.926	411.7
321.002	379.56
321.078	425.48
321.154	425.48
321.229	386.45
321.305	345.12
321.381	333.64
321.456	374.97
321.532	352.01
321.608	404.82
321.683	443.85
321.759	384.15
321.835	427.78
321.91	402.52
321.986	418.59
322.061	393.34
322.137	427.78
322.212	425.48
322.288	386.45
322.364	388.74
322.439	358.89
322.515	361.19
322.59	443.85
322.666	340.53
322.741	416.3
322.816	427.78
322.892	379.56
322.967	393.34
323.043	303.79
323.118	439.26
323.193	393.34
323.269	407.11
323.344	381.86
323.42	436.96
323.495	372.67
323.57	308.38
323.646	370.38
323.721	425.48
323.796	407.11
323.871	384.15
323.947	365.78
324.022	420.89
324.097	397.93
324.172	416.3
324.248	395.63
324.323	358.89
324.398	414
324.473	365.78
324.548	379.56
324.623	409.41
324.699	308.38
324.774	409.41
324.849	459.92
324.924	388.74
324.999	425.48
325.074	333.64
325.149	420.89
325.224	423.18
325.299	347.41
325.374	365.78
325.449	374.97
325.524	418.59
325.599	400.22
325.674	473.7
325.749	372.67
325.824	372.67
325.899	374.97
325.974	388.74
326.049	416.3
326.124	347.41
326.199	425.48
326.273	391.04
326.348	388.74
326.423	393.34
326.498	381.86
326.573	439.26
326.648	365.78
326.722	379.56
326.797	427.78
326.872	397.93
326.947	372.67
327.021	450.74
327.096	365.78
327.171	379.56
327.245	443.85
327.32	379.56
327.395	423.18
327.47	404.82
327.544	462.22
327.619	393.34
327.693	374.97
327.768	386.45
327.843	441.55
327.917	411.7
327.992	409.41
328.066	400.22
328.141	377.26
328.215	363.49
328.29	368.08
328.364	365.78
328.439	480.58
328.513	391.04
328.588	503.54
328.662	391.04
328.737	372.67
328.811	448.44
328.886	443.85
328.96	363.49
329.035	407.11
329.109	416.3
329.183	441.55
329.258	430.07
329.332	393.34
329.406	416.3
329.481	384.15
329.555	404.82
329.629	473.7
329.704	381.86
329.778	430.07
329.852	386.45
329.926	381.86
330.001	393.34
330.075	439.26
330.149	427.78
330.223	386.45
330.297	411.7
330.372	423.18
330.446	423.18
330.52	457.62
330.594	386.45
330.668	446.14
330.742	349.71
330.816	464.51
330.89	409.41
330.964	409.41
331.038	352.01
331.113	441.55
331.187	430.07
331.261	393.34
331.335	407.11
331.409	466.81
331.483	400.22
331.557	404.82
331.63	450.74
331.704	365.78
331.778	414
331.852	393.34
331.926	395.63
332	400.22
332.074	377.26
332.148	404.82
332.222	459.92
332.295	418.59
332.369	356.6
332.443	363.49
332.517	423.18
332.591	363.49
332.665	475.99
332.738	418.59
332.812	361.19
332.886	427.78
332.959	407.11
333.033	459.92
333.107	425.48
333.181	388.74
333.254	393.34
333.328	407.11
333.402	450.74
333.475	411.7
333.549	393.34
333.622	455.33
333.696	430.07
333.77	395.63
333.843	436.96
333.917	381.86
333.99	457.62
334.064	436.96
334.137	436.96
334.211	407.11
334.284	416.3
334.358	381.86
334.431	393.34
334.505	407.11
334.578	420.89
334.652	361.19
334.725	356.6
334.799	423.18
334.872	384.15
334.945	414
335.019	434.66
335.092	377.26
335.165	354.3
335.239	391.04
335.312	368.08
335.385	430.07
335.459	459.92
335.532	453.03
335.605	338.23
335.678	441.55
335.752	377.26
335.825	418.59
335.898	393.34
335.971	487.47
336.045	381.86
336.118	377.26
336.191	425.48
336.264	409.41
336.337	436.96
336.41	393.34
336.483	455.33
336.557	466.81
336.63	352.01
336.703	457.62
336.776	418.59
336.849	411.7
336.922	386.45
336.995	443.85
337.068	446.14
337.141	407.11
337.214	432.37
337.287	441.55
337.36	379.56
337.433	462.22
337.506	439.26
337.579	386.45
337.652	386.45
337.725	439.26
337.797	425.48
337.87	423.18
337.943	345.12
338.016	391.04
338.089	358.89
338.162	453.03
338.235	354.3
338.307	434.66
338.38	407.11
338.453	400.22
338.526	485.18
338.598	338.23
338.671	471.4
338.744	453.03
338.817	416.3
338.889	372.67
338.962	414
339.035	453.03
339.107	430.07
339.18	462.22
339.253	379.56
339.325	386.45
339.398	397.93
339.47	404.82
339.543	416.3
339.616	420.89
339.688	358.89
339.761	393.34
339.833	432.37
339.906	416.3
339.978	423.18
340.051	386.45
340.123	427.78
340.196	436.96
340.268	411.7
340.341	400.22
340.413	391.04
340.485	430.07
340.558	443.85
340.63	423.18
340.703	388.74
340.775	434.66
340.847	404.82
340.92	402.52
340.992	469.1
341.064	407.11
341.137	443.85
341.209	391.04
341.281	404.82
341.354	345.12
341.426	411.7
341.498	397.93
341.57	466.81
341.643	423.18
341.715	540.28
341.787	418.59
341.859	485.18
341.931	432.37
342.003	432.37
342.076	414
342.148	393.34
342.22	464.51
342.292	436.96
342.364	432.37
342.436	414
342.508	409.41
342.58	425.48
342.652	425.48
342.724	427.78
342.796	345.12
342.868	407.11
342.94	402.52
343.012	453.03
343.084	425.48
343.156	388.74
343.228	430.07
343.3	455.33
343.372	453.03
343.444	485.18
343.516	448.44
343.588	391.04
343.66	430.07
343.731	402.52
343.803	446.14
343.875	427.78
343.947	420.89
344.019	418.59
344.09	395.63
344.162	434.66
344.234	397.93
344.306	414
344.377	439.26
344.449	469.1
344.521	489.77
344.593	402.52
344.664	459.92
344.736	501.25
344.808	464.51
344.879	439.26
344.951	414
345.023	450.74
345.094	462.22
345.166	430.07
345.237	505.84
345.309	423.18
345.38	478.29
345.452	434.66
345.524	432.37
345.595	459.92
345.667	409.41
345.738	418.59
345.81	420.89
345.881	404.82
345.953	446.14
346.024	471.4
346.095	425.48
346.167	404.82
346.238	450.74
346.31	475.99
346.381	498.95
346.452	512.73
346.524	464.51
346.595	446.14
346.666	409.41
346.738	485.18
346.809	478.29
346.88	397.93
346.952	420.89
347.023	388.74
347.094	441.55
347.165	469.1
347.237	448.44
347.308	427.78
347.379	430.07
347.45	482.88
347.521	459.92
347.593	427.78
347.664	462.22
347.735	409.41
347.806	480.58
347.877	492.06
347.948	443.85
348.019	457.62
348.09	462.22
348.161	503.54
348.233	407.11
348.304	443.85
348.375	427.78
348.446	430.07
348.517	478.29
348.588	379.56
348.659	443.85
348.73	457.62
348.801	464.51
348.871	446.14
348.942	448.44
349.013	462.22
349.084	492.06
349.155	462.22
349.226	448.44
349.297	446.14
349.368	457.62
349.439	457.62
349.509	494.36
349.58	400.22
349.651	448.44
349.722	501.25
349.793	446.14
349.863	515.02
349.934	462.22
350.005	381.86
350.076	453.03
350.146	531.1
350.217	464.51
350.288	540.28
350.358	512.73
350.429	466.81
350.5	487.47
350.57	540.28
350.641	560.94
350.711	528.8
350.782	464.51
350.853	496.66
350.923	501.25
350.994	515.02
351.064	508.14
351.135	498.95
351.205	551.76
351.276	517.32
351.346	515.02
351.417	512.73
351.487	512.73
351.558	524.21
351.628	572.42
351.699	565.54
351.769	478.29
351.84	574.72
351.91	570.13
351.98	563.24
352.051	668.86
352.121	570.13
352.191	641.3
352.262	611.46
352.332	618.34
352.402	661.97
352.473	625.23
352.543	648.19
352.613	673.45
352.683	733.14
352.754	643.6
352.824	689.52
352.894	710.18
352.964	696.41
353.035	730.85
353.105	781.36
353.175	776.77
353.245	811.21
353.315	799.73
353.385	824.98
353.455	896.16
353.526	875.5
353.596	903.05
353.666	1010.96
353.736	1024.74
353.806	967.34
353.876	1141.83
353.946	1146.43
354.016	1079.84
354.086	1128.06
354.156	1206.12
354.226	1192.35
354.296	1235.97
354.366	1362.25
354.436	1355.36
354.506	1412.76
354.576	1410.47
354.645	1472.46
354.715	1509.2
354.785	1587.26
354.855	1663.03
354.925	1729.61
354.995	1780.12
355.065	1867.37
355.134	1933.96
355.204	1961.51
355.274	2009.73
355.344	2085.49
355.414	2207.18
355.483	2308.21
355.553	2312.8
355.623	2383.98
355.693	2558.47
355.762	2776.59
355.832	2767.41
355.902	2792.67
355.971	2831.7
356.041	3006.19
356.111	3038.34
356.18	3222.02
356.25	3311.56
356.319	3492.95
356.389	3676.63
356.459	3674.33
356.528	3876.38
356.598	3988.89
356.667	4057.77
356.737	4209.3
356.806	4165.68
356.876	4477.94
356.945	4663.91
357.015	4790.19
357.084	5040.46
357.154	5086.38
357.223	5352.72
357.292	5304.5
357.362	5518.03
357.431	5717.78
357.501	5961.16
357.57	6172.39
357.639	6216.02
357.709	6507.61
357.778	6528.27
357.847	6718.84
357.917	6957.63
357.986	7370.91
358.055	7488
358.124	7843.89
358.194	8025.27
358.263	8277.83
358.332	8539.58
358.401	8727.85
358.471	8877.09
358.54	9203.12
358.609	9297.26
358.678	9744.98
358.747	10105.46
358.816	10380.98
358.886	10599.1
358.955	10895.28
359.024	11118
359.093	11515.21
359.162	11859.61
359.231	12119.06
359.3	12534.63
359.369	12566.78
359.438	13014.5
359.507	13182.11
359.576	13645.9
359.645	13864.02
359.714	14541.35
359.783	14493.13
359.852	15005.14
359.921	15287.55
359.99	15583.73
360.059	16143.96
360.128	16366.67
360.197	16913.12
360.266	17452.69
360.334	17450.39
360.403	18028.98
360.472	18148.38
360.541	18761.41
360.61	19202.25
360.679	19627.01
360.747	20067.84
360.816	20334.18
360.885	20848.48
360.954	21385.75
361.022	22028.63
361.091	22386.81
361.16	22708.25
361.228	23245.52
361.297	23537.11
361.366	24175.4
361.434	24565.72
361.503	24979.01
361.572	25771.13
361.64	26014.51
361.709	26489.78
361.778	27116.59
361.846	27268.13
361.915	28273.78
361.983	28354.14
362.052	28983.25
362.12	29543.47
362.189	29894.76
362.257	30507.8
362.326	30939.45
362.394	31722.39
362.463	31828
362.531	32112.71
362.6	32994.37
362.668	33136.73
362.737	33802.57
362.805	34608.47
362.873	35072.26
362.942	35650.86
363.01	35846.02
363.079	36087.1
363.147	36812.64
363.215	36998.62
363.284	37788.44
363.352	38578.27
363.42	39379.58
363.488	39462.23
363.557	39930.62
363.625	40256.65
363.693	40826.06
363.761	41292.15
363.83	41374.81
363.898	41953.4
363.966	42378.17
364.034	43186.36
364.102	43326.42
364.171	43895.83
364.239	44019.81
364.307	44632.85
364.375	44981.84
364.443	45280.32
364.511	45372.16
364.579	46100
364.647	46403.07
364.715	47064.32
364.783	47222.75
364.851	47489.08
364.919	47787.56
364.987	48448.81
365.055	48797.81
365.123	48956.23
365.191	49406.25
365.259	49518.76
365.327	49780.5
365.395	50221.33
365.463	50432.57
365.531	50607.06
365.599	50793.04
365.667	50868.81
365.735	51029.53
365.802	51488.73
365.87	51773.44
365.938	51966.3
366.006	51913.49
366.074	52140.8
366.142	52016.81
366.209	52310.7
366.277	52893.89
366.345	52939.81
366.413	52806.64
366.48	53134.97
366.548	52841.08
366.616	53247.47
366.683	53541.36
366.751	53208.44
366.819	53807.7
366.886	53660.76
366.954	54044.19
367.022	53543.66
367.089	53826.07
367.157	53805.4
367.224	53810
367.292	54138.33
367.36	54310.53
367.427	54103.89
367.495	54312.82
367.562	54260.01
367.63	54035.01
367.697	54069.45
367.765	54131.44
367.832	53998.27
367.9	53855.92
367.967	53945.46
368.034	54037.3
368.102	54057.97
368.169	54106.18
368.237	54048.78
368.304	54140.62
368.371	54002.86
368.439	53800.81
368.506	53770.96
368.573	53920.21
368.641	53782.44
368.708	53506.92
368.775	53249.77
368.843	52937.51
368.91	53213.03
368.977	53185.48
369.044	53557.44
369.112	52859.45
369.179	52822.71
369.246	52891.59
369.313	53047.72
369.38	52168.35
369.448	52659.7
369.515	52765.31
369.582	52221.16
369.649	52014.52
369.716	52127.02
369.783	51376.23
369.85	51764.25
369.917	51651.75
369.984	51438.22
370.052	51348.67
370.119	51192.55
370.186	50905.54
370.253	50568.03
370.32	50889.47
370.387	50512.93
370.454	50558.85
370.521	50085.87
370.587	50003.21
370.654	50113.42
370.721	49994.03
370.788	49424.62
370.855	49270.79
370.922	49059.55
370.989	49211.09
371.056	49036.59
371.123	48568.21
371.189	48037.83
371.256	48069.97
371.323	47884
371.39	47755.42
371.457	47599.29
371.523	47383.47
371.59	47114.83
371.657	46756.66
371.724	46921.97
371.79	46848.5
371.857	46745.18
371.924	46003.56
371.991	45640.79
372.057	45356.09
372.124	45824.48
372.191	45617.83
372.257	45287.21
372.324	45206.85
372.39	44674.17
372.457	44559.37
372.524	44456.05
372.59	44373.4
372.657	43714.44
372.723	43415.96
372.79	43289.68
372.856	43278.2
372.923	43126.66
372.989	43317.23
373.056	42649.09
373.122	42263.36
373.189	42672.05
373.255	41999.32
373.322	41739.87
373.388	41383.99
373.454	41186.54
373.521	40936.27
373.587	41085.51
373.654	40681.41
373.72	40773.25
373.786	40683.71
373.853	40072.97
373.919	40013.28
373.985	39710.2
374.052	39544.89
374.118	39087.98
374.184	38938.74
374.25	38729.81
374.317	38238.46
374.383	38311.93
374.449	38215.5
374.515	38100.7
374.581	37811.4
374.648	37377.46
374.714	37019.28
374.78	36599.11
374.846	36674.88
374.912	36337.36
374.978	36199.6
375.044	36052.66
375.11	35864.39
375.177	35246.76
375.243	35453.4
375.309	34677.35
375.375	34709.49
375.441	34165.34
375.507	34399.53
375.573	34126.31
375.639	33944.92
375.705	33437.5
375.771	33325
375.837	33047.18
375.903	32604.05
375.968	32245.88
376.034	32452.52
376.1	32225.21
376.166	31375.69
376.232	31263.18
376.298	31258.59
376.364	30999.14
376.43	30744.29
376.495	30443.51
376.561	30128.95
376.627	29777.67
376.693	29396.53
376.759	29442.45
376.824	29063.61
376.89	29006.21
376.956	28712.32
377.022	28760.53
377.087	28287.55
377.153	28005.15
377.219	27545.94
377.284	27729.62
377.35	27477.06
377.416	27171.69
377.481	26926.02
377.547	26466.82
377.613	25947.92
377.678	25885.93
377.744	25718.32
377.809	25376.21
377.875	25105.29
377.94	24689.71
378.006	24455.52
378.071	24630.01
378.137	24246.58
378.202	23982.54
378.268	23876.92
378.333	23892.99
378.399	23167.45
378.464	22740.4
378.53	22751.88
378.595	22666.92
378.661	22517.68
378.726	21750.82
378.791	21771.48
378.857	21856.43
378.922	21468.41
378.987	21473
379.053	21158.45
379.118	20510.97
379.183	20807.16
379.249	20373.21
379.314	20288.26
379.379	20242.34
379.444	20019.62
379.51	19454.81
379.575	19537.46
379.64	19163.21
379.705	18892.28
379.771	18997.9
379.836	18614.47
379.901	18522.63
379.966	18302.21
380.031	18419.31
380.096	17971.58
380.161	17781.02
380.227	17712.14
380.292	17578.97
380.357	17392.99
380.422	17436.61
380.487	17083.03
380.552	16805.21
380.617	16812.1
380.682	16646.79
380.747	16488.36
380.812	16270.24
380.877	16251.87
380.942	16038.34
381.007	15854.66
381.072	15689.35
381.137	15606.69
381.202	15693.94
381.266	15533.22
381.331	14968.4
381.396	15018.92
381.461	14899.52
381.526	14594.15
381.591	14206.13
381.656	14428.84
381.72	14307.15
381.785	14500.02
381.85	14144.14
381.915	14153.32
381.979	13841.06
382.044	13740.04
382.109	13469.11
382.174	13515.03
382.238	13473.7
382.303	13216.55
382.368	13271.65
382.432	13104.04
382.497	12782.6
382.562	12876.74
382.626	12275.18
382.691	12426.72
382.756	12357.84
382.82	12155.79
382.885	11866.49
382.949	12057.06
383.014	11788.43
383.078	11749.4
383.143	11652.97
383.208	11590.97
383.272	11434.84
383.337	11111.11
383.401	11294.79
383.465	10856.25
383.53	10961.87
383.594	11072.08
383.659	10617.47
383.723	10576.14
383.788	10943.5
383.852	10495.78
383.916	10413.12
383.981	10277.66
384.045	10142.19
384.109	10091.68
384.174	9979.17
384.238	9864.37
384.302	9643.96
384.367	9646.25
384.431	9653.14
384.495	9682.99
384.56	9267.41
384.624	9400.58
384.688	9352.36
384.752	9203.12
384.816	8824.28
384.881	8872.5
384.945	8911.53
385.009	8718.67
385.073	8642.9
385.137	8541.87
385.201	8514.32
385.265	8429.37
385.33	8378.86
385.394	8234.21
385.458	8316.86
385.522	8064.3
385.586	8022.97
385.65	7965.57
385.714	7933.43
385.778	7676.28
385.842	7733.68
385.906	7726.79
385.97	7460.45
386.034	7536.22
386.098	7311.21
386.162	7448.97
386.226	7460.45
386.29	7194.12
386.354	7102.27
386.417	6994.36
386.481	6870.38
386.545	6927.78
386.609	6845.12
386.673	6555.82
386.737	6551.23
386.8	6525.98
386.864	6744.1
386.928	6376.74
386.992	6401.99
387.056	6519.09
387.119	6225.2
387.183	6257.34
387.247	6174.69
387.31	6121.88
387.374	5965.75
387.438	5855.54
387.502	5743.04
387.565	5908.35
387.629	5867.02
387.692	5752.22
387.756	5623.64
387.82	5591.5
387.883	5568.54
387.947	5428.48
388.01	5417
388.074	5490.48
388.138	5272.36
388.201	5334.35
388.265	5102.45
388.328	5051.94
388.392	5175.92
388.455	5130
388.519	5102.45
388.582	4852.19
388.645	4918.77
388.709	4989.95
388.772	4902.7
388.836	4719.02
388.899	4526.15
388.962	4562.89
389.026	4595.03
389.089	4390.69
389.153	4399.87
389.216	4399.87
389.279	4390.69
389.343	4356.25
389.406	4262.11
389.469	4312.62
389.532	4234.56
389.596	4243.74
389.659	4062.36
389.722	3977.41
389.785	4190.93
389.848	3959.04
389.912	3816.69
389.975	3947.56
390.038	3802.91
390.101	3717.96
390.164	3825.87
390.227	3860.31
390.291	3779.95
390.354	3720.25
390.417	3504.43
390.48	3653.67
390.543	3607.75
390.606	3529.68
390.669	3545.76
390.732	3492.95
390.795	3408
390.858	3256.46
390.921	3364.37
390.984	3362.08
391.047	3249.57
391.11	3270.24
391.173	3309.27
391.236	3244.98
391.299	3182.99
391.362	3063.59
391.424	3104.92
391.487	3070.48
391.55	3033.75
391.613	2987.83
391.676	3033.75
391.739	3146.25
391.802	2882.21
391.864	2886.8
391.927	2909.76
391.99	2753.63
392.053	2817.92
392.115	2815.63
392.178	2941.91
392.241	2815.63
392.304	2755.93
392.366	2691.64
392.429	2629.65
392.492	2574.54
392.554	2666.38
392.617	2650.31
392.68	2641.13
392.742	2533.22
392.805	2583.73
392.867	2487.3
392.93	2441.38
392.992	2445.97
393.055	2379.38
393.118	2349.54
393.18	2475.82
393.243	2333.46
393.305	2372.5
393.368	2406.94
393.43	2356.42
393.493	2262.29
393.555	2273.77
393.618	2299.02
393.68	2218.66
393.742	2317.39
393.805	2211.77
393.867	2133.71
393.93	2161.26
393.992	2193.41
394.054	2129.12
394.117	2136.01
394.179	2184.22
394.241	2032.69
394.304	2103.86
394.366	2021.21
394.428	1991.36
394.49	2076.31
394.553	2083.2
394.615	1975.29
394.677	1915.59
394.739	1924.77
394.802	1906.41
394.864	1846.71
394.926	1888.04
394.988	1835.23
395.05	1862.78
395.112	1835.23
395.174	1832.93
395.237	1816.86
395.299	1754.87
395.361	1791.6
395.423	1823.75
395.485	1688.28
395.547	1773.24
395.609	1667.62
395.671	1676.8
395.733	1679.1
395.795	1667.62
395.857	1718.13
395.919	1587.26
395.981	1624
396.043	1612.52
396.105	1601.04
396.167	1575.78
396.229	1594.15
396.291	1580.37
396.352	1527.56
396.414	1495.42
396.476	1545.93
396.538	1500.01
396.6	1562
396.662	1513.79
396.724	1483.94
396.785	1435.72
396.847	1477.05
396.909	1488.53
396.971	1534.45
397.032	1454.09
397.094	1421.95
397.156	1497.72
397.218	1456.39
397.279	1387.51
397.341	1334.7
397.403	1419.65
397.464	1327.81
397.526	1325.52
397.588	1277.3
397.649	1398.99
397.711	1357.66
397.772	1398.99
397.834	1288.78
397.896	1231.38
397.957	1330.11
398.019	1226.79
398.08	1238.27
398.142	1288.78
398.203	1240.56
398.265	1281.89
398.326	1187.75
398.388	1208.42
398.449	1210.71
398.511	1240.56
398.572	1137.24
398.633	1118.87
398.695	1178.57
398.756	1139.54
398.818	1153.31
398.879	1121.17
398.94	1107.39
399.002	1063.77
399.063	1125.76
399.124	1132.65
399.186	1102.8
399.247	1082.14
399.308	1098.21
399.369	1036.22
399.431	1008.67
399.492	1024.74
399.553	1116.58
399.614	1040.81
399.676	992.59
399.737	1070.66
399.798	1040.81
399.859	1049.99
399.92	912.23
399.981	992.59
400.042	1004.07
400.104	944.38
400.165	912.23
400.226	921.42
400.287	942.08
400.348	1068.36
400.409	914.53
400.47	889.27
400.531	944.38
400.592	930.6
400.653	953.56
400.714	926.01
400.775	873.2
400.836	891.57
400.897	857.13
400.958	905.35
401.019	896.16
401.08	882.39
401.141	854.83
401.201	875.5
401.262	834.17
401.323	921.42
401.384	864.02
401.445	896.16
401.506	875.5
401.567	882.39
401.627	875.5
401.688	854.83
401.749	824.98
401.81	857.13
401.87	758.4
401.931	815.8
401.992	864.02
402.053	781.36
402.113	847.95
402.174	806.62
402.235	841.06
402.295	785.95
402.356	804.32
402.417	857.13
402.477	785.95
402.538	852.54
402.598	751.51
402.659	719.37
402.719	719.37
402.78	691.82
402.841	707.89
402.901	781.36
402.962	797.43
403.022	627.53
403.083	687.22
403.143	707.89
403.204	758.4
403.264	680.34
403.324	765.29
403.385	675.74
403.445	776.77
403.506	668.86
403.566	740.03
403.627	733.14
403.687	756.1
403.747	760.7
403.808	652.78
403.868	710.18
403.928	675.74
403.989	696.41
404.049	712.48
404.109	583.9
404.169	627.53
404.23	682.63
404.29	712.48
404.35	636.71
404.41	641.3
404.47	650.49
404.531	650.49
404.591	696.41
404.651	701
404.711	680.34
404.771	694.11
404.831	648.19
404.892	643.6
404.952	655.08
405.012	648.19
405.072	599.98
405.132	549.46
405.192	717.07
405.252	618.34
405.312	668.86
405.372	558.65
405.432	634.42
405.492	611.46
405.552	632.12
405.612	606.86
405.672	570.13
405.732	565.54
405.792	563.24
405.852	684.93
405.912	634.42
405.971	583.9
406.031	567.83
406.091	609.16
406.151	577.02
406.211	616.05
406.271	641.3
406.33	551.76
406.39	599.98
406.45	629.82
406.51	648.19
406.57	560.94
406.629	616.05
406.689	622.94
406.749	554.06
406.808	590.79
406.868	597.68
406.928	579.31
406.988	593.09
407.047	554.06
407.107	535.69
407.166	574.72
407.226	620.64
407.286	540.28
407.345	544.87
407.405	609.16
407.464	563.24
407.524	531.1
407.584	537.98
407.643	503.54
407.703	434.66
407.762	517.32
407.822	510.43
407.881	544.87
407.941	583.9
408	535.69
408.059	526.5
408.119	498.95
408.178	521.91
408.238	554.06
408.297	531.1
408.356	508.14
408.416	554.06
408.475	542.58
408.535	604.57
408.594	528.8
408.653	475.99
408.712	521.91
408.772	492.06
408.831	501.25
408.89	503.54
408.95	492.06
409.009	574.72
409.068	494.36
409.127	535.69
409.186	459.92
409.246	549.46
409.305	494.36
409.364	515.02
409.423	567.83
409.482	537.98
409.541	487.47
409.6	446.14
409.66	482.88
409.719	533.39
409.778	475.99
409.837	418.59
409.896	457.62
409.955	420.89
410.014	459.92
410.073	515.02
410.132	526.5
410.191	524.21
410.25	533.39
410.309	505.84
410.368	423.18
410.427	475.99
410.486	455.33
410.545	496.66
410.603	492.06
410.662	478.29
410.721	533.39
410.78	517.32
410.839	533.39
410.898	508.14
410.957	450.74
411.015	469.1
411.074	572.42
411.133	478.29
411.192	439.26
411.25	459.92
411.309	427.78
411.368	503.54
411.427	418.59
411.485	441.55
411.544	414
411.603	480.58
411.661	533.39
411.72	439.26
411.779	446.14
411.837	524.21
411.896	434.66
411.955	436.96
412.013	478.29
412.072	439.26
412.13	478.29
412.189	480.58
412.247	453.03
412.306	441.55
412.364	450.74
412.423	469.1
412.481	457.62
412.54	416.3
412.598	436.96
412.657	395.63
412.715	464.51
412.774	446.14
412.832	439.26
412.891	457.62
412.949	478.29
413.007	485.18
413.066	466.81
413.124	450.74
413.182	436.96
413.241	432.37
413.299	469.1
413.357	455.33
413.416	409.41
413.474	416.3
413.532	482.88
413.59	469.1
413.649	462.22
413.707	425.48
413.765	393.34
413.823	407.11
413.881	455.33
413.94	466.81
413.998	503.54
414.056	368.08
414.114	384.15
414.172	379.56
414.23	381.86
414.288	450.74
414.347	404.82
414.405	450.74
414.463	407.11
414.521	457.62
414.579	414
414.637	404.82
414.695	492.06
414.753	462.22
414.811	441.55
414.869	482.88
414.927	432.37
414.985	411.7
415.043	475.99
415.101	423.18
415.158	411.7
415.216	478.29
415.274	528.8
415.332	363.49
415.39	478.29
415.448	372.67
415.506	418.59
415.563	457.62
415.621	407.11
415.679	455.33
415.737	342.82
415.795	485.18
415.852	450.74
415.91	361.19
415.968	434.66
416.026	388.74
416.083	404.82
416.141	395.63
416.199	443.85
416.256	411.7
416.314	361.19
416.372	450.74
416.429	459.92
416.487	420.89
416.544	418.59
416.602	453.03
416.66	395.63
416.717	450.74
416.775	404.82
416.832	329.05
416.89	448.44
416.947	423.18
417.005	409.41
417.062	446.14
417.12	381.86
417.177	395.63
417.235	455.33
417.292	416.3
417.35	416.3
417.407	397.93
417.464	358.89
417.522	356.6
417.579	434.66
417.637	453.03
417.694	475.99
417.751	409.41
417.809	418.59
417.866	388.74
417.923	457.62
417.981	391.04
418.038	425.48
418.095	466.81
418.152	411.7
418.21	404.82
418.267	416.3
418.324	443.85
418.381	436.96
418.438	464.51
418.496	423.18
418.553	411.7
418.61	416.3
418.667	384.15
418.724	397.93
418.781	418.59
418.838	368.08
418.895	453.03
418.952	386.45
419.01	448.44
419.067	411.7
419.124	446.14
419.181	416.3
419.238	349.71
419.295	349.71
419.352	414
419.409	379.56
419.466	388.74
419.523	372.67
419.579	372.67
419.636	418.59
419.693	384.15
419.75	434.66
419.807	397.93
419.864	402.52
419.921	439.26
419.978	436.96
420.034	411.7
420.091	384.15
420.148	368.08
420.205	436.96
420.262	402.52
420.318	381.86
420.375	427.78
420.432	400.22
420.489	420.89
420.545	345.12
420.602	407.11
420.659	352.01
420.715	434.66
420.772	381.86
420.829	402.52
420.885	365.78
420.942	416.3
420.999	393.34
421.055	365.78
421.112	423.18
421.168	354.3
421.225	402.52
421.282	358.89
421.338	423.18
421.395	363.49
421.451	397.93
421.508	423.18
421.564	381.86
421.621	432.37
421.677	407.11
421.734	342.82
421.79	395.63
421.846	347.41
421.903	427.78
421.959	374.97
422.016	420.89
422.072	409.41
422.128	354.3
422.185	411.7
422.241	395.63
422.297	349.71
422.354	425.48
422.41	397.93
422.466	404.82
422.523	395.63
422.579	335.93
422.635	397.93
422.691	434.66
422.748	368.08
422.804	377.26
422.86	425.48
422.916	388.74
422.972	329.05
423.029	386.45
423.085	418.59
423.141	411.7
423.197	420.89
423.253	377.26
423.309	450.74
423.365	388.74
423.421	414
423.477	391.04
423.533	363.49
423.589	400.22
423.645	361.19
423.701	349.71
423.757	370.38
423.813	384.15
423.869	370.38
423.925	416.3
423.981	391.04
424.037	333.64
424.093	386.45
424.149	379.56
424.205	356.6
424.261	361.19
424.317	402.52
424.373	349.71
424.428	411.7
424.484	391.04
424.54	356.6
424.596	354.3
424.652	395.63
424.708	381.86
424.763	411.7
424.819	381.86
424.875	374.97
424.931	308.38
424.986	439.26
425.042	418.59
425.098	361.19
425.153	395.63
425.209	324.45
425.265	386.45
425.32	379.56
425.376	310.68
425.432	446.14
425.487	397.93
425.543	345.12
425.598	439.26
425.654	381.86
425.709	416.3
425.765	384.15
425.82	379.56
425.876	363.49
425.932	388.74
425.987	342.82
426.042	400.22
426.098	361.19
426.153	407.11
426.209	379.56
426.264	342.82
426.32	384.15
426.375	448.44
426.43	430.07
426.486	397.93
426.541	397.93
426.597	317.57
426.652	381.86
426.707	478.29
426.763	388.74
426.818	370.38
426.873	338.23
426.928	365.78
426.984	322.16
427.039	448.44
427.094	356.6
427.149	363.49
427.205	312.97
427.26	368.08
427.315	368.08
427.37	368.08
427.425	374.97
427.48	331.34
427.536	335.93
427.591	317.57
427.646	363.49
427.701	354.3
427.756	335.93
427.811	361.19
427.866	356.6
427.921	352.01
427.976	411.7
428.031	384.15
428.086	393.34
428.141	317.57
428.196	388.74
428.251	377.26
428.306	312.97
428.361	372.67
428.416	356.6
428.471	384.15
428.526	391.04
428.581	349.71
428.636	365.78
428.691	349.71
428.745	381.86
428.8	342.82
428.855	345.12
428.91	349.71
428.965	395.63
429.02	384.15
429.074	407.11
429.129	393.34
429.184	381.86
429.239	294.61
429.293	409.41
429.348	306.09
429.403	409.41
429.457	402.52
429.512	326.75
429.567	338.23
429.621	402.52
429.676	439.26
429.731	432.37
429.785	420.89
429.84	368.08
429.895	326.75
429.949	418.59
430.004	372.67
430.058	326.75
430.113	391.04
430.167	352.01
430.222	342.82
430.276	388.74
430.331	393.34
430.385	388.74
430.44	324.45
430.494	370.38
430.549	393.34
430.603	363.49
430.657	379.56
430.712	374.97
430.766	315.27
430.821	368.08
430.875	370.38
430.929	430.07
430.984	377.26
431.038	384.15
431.092	409.41
431.147	397.93
431.201	427.78
431.255	386.45
431.309	340.53
431.364	356.6
431.418	365.78
431.472	347.41
431.526	436.96
431.581	358.89
431.635	349.71
431.689	427.78
431.743	381.86
431.797	374.97
431.851	322.16
431.906	423.18
431.96	329.05
432.014	352.01
432.068	335.93
432.122	391.04
432.176	441.55
432.23	326.75
432.284	443.85
432.338	453.03
432.392	315.27
432.446	381.86
432.5	352.01
432.554	379.56
432.608	384.15
432.662	393.34
432.716	306.09
432.77	356.6
432.824	365.78
432.878	377.26
432.931	317.57
432.985	374.97
433.039	326.75
433.093	391.04
433.147	340.53
433.201	407.11
433.254	446.14
433.308	388.74
433.362	352.01
433.416	423.18
433.47	430.07
433.523	388.74
433.577	301.49
433.631	347.41
433.684	331.34
433.738	331.34
433.792	342.82
433.846	299.2
433.899	414
433.953	349.71
434.006	386.45
434.06	324.45
434.114	315.27
434.167	315.27
434.221	315.27
